Wavelength,03MAY18
350,0.04180813130430204
351,0.042123160292825965
352,0.04247761839799692
353,0.042554768403887236
354,0.04315330604465494
355,0.04334471763536829
356,0.04379042062210248
357,0.04404375940688969
358,0.0440776668792195
359,0.044236501615381674
360,0.044564491910859295
361,0.04491837007498293
362,0.045230928198016024
363,0.04530532438472859
364,0.04561047177284039
365,0.04589878275771868
366,0.04593254019902431
367,0.046179982280182795
368,0.0465107233540918
369,0.04686649890865452
370,0.047067047506633826
371,0.047352578880839796
372,0.047631247737040874
373,0.047951350344435796
374,0.048352938566610076
375,0.04879935850021699
376,0.049195233471429775
377,0.04956296273690115
378,0.04986818420195086
379,0.05030877720862027
380,0.050713588384200065
381,0.05097090343066915
382,0.05149938292435107
383,0.0519902918512908
384,0.05239268226476379
385,0.052669487745813724
386,0.05314069621267255
387,0.05358649644774718
388,0.05397913828729159
389,0.05441980326075777
390,0.05469241338155275
391,0.05503632621649692
392,0.05532313980516466
393,0.05565162357326517
394,0.05596977699637065
395,0.0564109018343629
396,0.056798996556613045
397,0.05706121748554566
398,0.057326444030888296
399,0.057582240305795084
400,0.05780263088593926
401,0.05800770525652659
402,0.058314926261085934
403,0.05851157667629512
404,0.05874393551821567
405,0.05900563089750039
406,0.05925072794164979
407,0.059540650565732905
408,0.059757530210476015
409,0.060040525547942605
410,0.06029000610035236
411,0.06052999172891996
412,0.06085263019092765
413,0.061083960966094746
414,0.061416841845429414
415,0.06170540399898083
416,0.06196113368845776
417,0.06219924502609064
418,0.062449415992108
419,0.06272919011514104
420,0.06298163693083363
421,0.06328386593309247
422,0.06352454723280489
423,0.06374367976092248
424,0.06399345353328109
425,0.06423087387164077
426,0.0644598053205486
427,0.06477037992351693
428,0.0650464230802368
429,0.0652965907283564
430,0.06552866063265374
431,0.06574468056996183
432,0.06597223475534351
433,0.06620888887566388
434,0.06641418251389296
435,0.06661299525453056
436,0.0668563964287626
437,0.06706540028319356
438,0.06722067692370387
439,0.06734638890356798
440,0.06753805519110923
441,0.06776695354658908
442,0.06794194462237203
443,0.06813307960355569
444,0.06833136512610243
445,0.06853496282202759
446,0.06869884189817409
447,0.0688930413919363
448,0.06909851549709463
449,0.06931903893465763
450,0.06957287924808815
451,0.06979418027792568
452,0.07005376711891129
453,0.07030126603992606
454,0.07055751905547085
455,0.07082134535424019
456,0.07107368817308354
457,0.0713117531416924
458,0.07154246160930397
459,0.07175807354874829
460,0.07197830095832891
461,0.07218828272919135
462,0.07238274355451291
463,0.07259750974031144
464,0.072802489524089
465,0.07302398888835596
466,0.07320580847403609
467,0.0733908269906687
468,0.07358034913989137
469,0.07374057716371699
470,0.0739516301602249
471,0.07414561345528688
472,0.07432331170529569
473,0.07451042007937571
474,0.07467884323448987
475,0.07485722421458184
476,0.07503575477629464
477,0.07521809550753639
478,0.0753987351626237
479,0.07558737996220043
480,0.07577655298108242
481,0.07594029783203764
482,0.07611949681319202
483,0.07633019716276648
484,0.0765137212214369
485,0.07671917164910357
486,0.07690884868934894
487,0.07708721076000023
488,0.07730584364577796
489,0.07749688733819218
490,0.07766310596071718
491,0.07782766389018281
492,0.07799466732952003
493,0.07815490595410655
494,0.07832190774174767
495,0.0784988249059424
496,0.07869122974120767
497,0.0788849890569455
498,0.0790791301690309
499,0.0792571184255769
500,0.07944682469401945
501,0.07963145457283856
502,0.07982069996465009
503,0.0800193193672362
504,0.08022112153667794
505,0.0804299077826756
506,0.0806234487836118
507,0.08079137350393162
508,0.08096580622968644
509,0.08115265207683893
510,0.08132606079530696
511,0.08149703884610943
512,0.0816836861951889
513,0.08186345243960784
514,0.08205369016266022
515,0.08223834691479817
516,0.08241366938561982
517,0.08259740778435687
518,0.08278897007628426
519,0.08296181144756395
520,0.08312794868873513
521,0.08329857019226433
522,0.08352020282663535
523,0.08368368784269221
524,0.08386576910931276
525,0.08405287868185728
526,0.08424219400384397
527,0.08443092668702554
528,0.084638519896173
529,0.08485748700337313
530,0.08509131100448054
531,0.08529160985682606
532,0.08545062745629636
533,0.08562927451150236
534,0.08580431168489132
535,0.0859658388829039
536,0.08615037505779215
537,0.08631158397340853
538,0.08647375881172882
539,0.08664650705615563
540,0.08681769774428946
541,0.08697918463112578
542,0.0871344481217945
543,0.08727511498764151
544,0.08743897795234644
545,0.08758207419269202
546,0.08770574006944484
547,0.08786698780132651
548,0.08800512123872897
549,0.0881254326016076
550,0.08825783176715925
551,0.08840730476811111
552,0.088571998121908
553,0.08873940895074696
554,0.08886655984696079
555,0.08901232502707015
556,0.0891617317184466
557,0.08930443219984943
558,0.08945001979839812
559,0.08959408404595
560,0.08975005829908442
561,0.08991833165379587
562,0.09004586776405209
563,0.09016372337871019
564,0.09028989223916592
565,0.09041810574783882
566,0.09053593382406479
567,0.09064563124349936
568,0.09075023794017653
569,0.09087546294195228
570,0.09100259046129282
571,0.09112357754733909
572,0.0912304035514233
573,0.0913226418664209
574,0.09142269183200187
575,0.09154068754398416
576,0.09167032284674657
577,0.09179271287524216
578,0.09190946622418461
579,0.09202500752028038
580,0.09215437941227161
581,0.09230805456360024
582,0.09244961939416736
583,0.0925559522382277
584,0.09266236440301605
585,0.09276987228024824
586,0.09287883681430176
587,0.09298823885590231
588,0.09311993956986309
589,0.09325569597863999
590,0.09337915888870081
591,0.09346941059266003
592,0.09357382554600865
593,0.09368988388449566
594,0.0937981489746603
595,0.09397769513978863
596,0.09410153291883971
597,0.09422743403135102
598,0.09435447142158919
599,0.09448350891864778
600,0.09461558074299319
601,0.09473507584968625
602,0.09482851808198285
603,0.09494758828951534
604,0.09507278509913784
605,0.0951969831339413
606,0.09535244975934956
607,0.09545748622537871
608,0.09556592013402555
609,0.09569408210201105
610,0.09580979763072991
611,0.09592132963348096
612,0.09604210567810854
613,0.09616184850091675
614,0.09629029719472916
615,0.09642283274018276
616,0.09652279110571696
617,0.09662213274071317
618,0.09671506545967788
619,0.09683000641821472
620,0.09696200086582708
621,0.09710519830194811
622,0.09723592217147169
623,0.09737174039871546
624,0.09752909010528596
625,0.09767245743790022
626,0.09781231075101526
627,0.09798459318629932
628,0.09814208614793948
629,0.09827547462572668
630,0.09840357903447412
631,0.09855602669290404
632,0.09871483150137585
633,0.0988620159607733
634,0.09898792913303592
635,0.09913645801219033
636,0.09928893385529736
637,0.0994320667516577
638,0.09956738177356805
639,0.09975316536226661
640,0.09993041223001294
641,0.10007117240011257
642,0.10019014879266948
643,0.10030616690756519
644,0.10047222571097093
645,0.10063967054757514
646,0.10083646351188791
647,0.1009791356117823
648,0.10104662879752536
649,0.10118508212125597
650,0.10132833068686886
651,0.10147495669630036
652,0.1016398510564722
653,0.10181361486666686
654,0.10199320340837952
655,0.10218425742957198
656,0.10233759202671933
657,0.10248346865598584
658,0.10259906031375364
659,0.1027448528743747
660,0.10290604156890355
661,0.10305985850433855
662,0.10321936909637618
663,0.10339550628519793
664,0.10358045210466879
665,0.10371879843190938
666,0.10389079698751394
667,0.10404978579102742
668,0.10419154416445975
669,0.10432281670109274
670,0.10448401756206649
671,0.10464016992624241
672,0.10481432613005995
673,0.10499424685062526
674,0.10516320217953562
675,0.105330183194108
676,0.10552299201043723
677,0.10569361725819976
678,0.10585844941958478
679,0.10603549176968878
680,0.10622393752026842
681,0.10639933020052969
682,0.10658521358123432
683,0.10677607362998584
684,0.1069990678390912
685,0.10720369413792995
686,0.10744842273240265
687,0.10772187389619498
688,0.10798588170415366
689,0.1081955070521915
690,0.10834818500047158
691,0.10858937511363329
692,0.10887042906661569
693,0.10925796651732801
694,0.10962517490964797
695,0.10988894246377308
696,0.11012692155852284
697,0.11041452492265061
698,0.1106509222062377
699,0.11091761998111721
700,0.11127601435743124
701,0.11159671718031916
702,0.11194212939043874
703,0.11231337193511792
704,0.112603548341053
705,0.11281165474368729
706,0.11300960025688246
707,0.11323380062516533
708,0.1135179729114828
709,0.11385758310196709
710,0.11411800585818441
711,0.1143514289896188
712,0.11460482364602703
713,0.11509699678879425
714,0.11535558515876511
715,0.11555896479224588
716,0.1158061377023894
717,0.11599623902522191
718,0.11629055129225228
719,0.11651650893192729
720,0.11686087372136555
721,0.11707210026039339
722,0.11723377981349385
723,0.11740546374714134
724,0.11762199304615834
725,0.11785418596291179
726,0.11808358644493723
727,0.11837409335543729
728,0.11859720683178382
729,0.11881115514764995
730,0.11901515970906239
731,0.11919113888896786
732,0.11935755638947963
733,0.11954933655067905
734,0.11970769075227743
735,0.11989688014159045
736,0.1200837209763635
737,0.1203186464500696
738,0.12051188975003498
739,0.12072386384593312
740,0.12096045090877745
741,0.12116839904297508
742,0.12137441299645406
743,0.12157038523802206
744,0.12176408306107779
745,0.12198499650862864
746,0.1222142297773475
747,0.12244139077634855
748,0.12267827455193879
749,0.12289125916272271
750,0.12310617426541103
751,0.12331853863801534
752,0.12353382031792452
753,0.12374839511399763
754,0.12396303469757118
755,0.12417300606601203
756,0.12437907979400596
757,0.12460686249876286
758,0.12488676028420036
759,0.1252003925052157
760,0.12565257782084577
761,0.1261049103190048
762,0.1263376745024429
763,0.12649629628615677
764,0.12659669577190377
765,0.1267570454034564
766,0.1268843825422455
767,0.12699249009234495
768,0.1271332432702932
769,0.12728555661130359
770,0.12750483954440214
771,0.1276800681616447
772,0.1278861843708927
773,0.12811662651815536
774,0.1283565264513039
775,0.12858828528816454
776,0.1288107189295874
777,0.12902229718272804
778,0.1292517921204122
779,0.12946207097532286
780,0.1296795231080277
781,0.12991108458428302
782,0.13011577894678605
783,0.130311796235489
784,0.13052577367797527
785,0.13074498919008073
786,0.13094252723951172
787,0.13115015326580573
788,0.13138254026800678
789,0.1316324195717108
790,0.13185575608014236
791,0.13206892150807087
792,0.13227215630428102
793,0.13249652248540975
794,0.13270507340980553
795,0.13291901891359878
796,0.13313603746337313
797,0.1333264938412968
798,0.13354810758038554
799,0.1338036513964501
800,0.13400001864480304
801,0.13420396110501234
802,0.1344169526602478
803,0.13463644169037067
804,0.13483524121961116
805,0.13501900126623098
806,0.13521020557322846
807,0.13541490433403128
808,0.13561548714253466
809,0.13583312366671474
810,0.13605290697630285
811,0.13625479491136178
812,0.1364618460362203
813,0.13669163465872933
814,0.13693702008395836
815,0.1372069797613325
816,0.13741689806649984
817,0.1376325394281273
818,0.1378451762755233
819,0.13803912748736827
820,0.13824301934636024
821,0.13844336875637195
822,0.1386257656160352
823,0.13881441606218684
824,0.1389886902117854
825,0.13913574416528307
826,0.1392970289342279
827,0.13946223696843588
828,0.13966262954193784
829,0.13982377280074498
830,0.1400440774174033
831,0.14020783670866166
832,0.14036719448150645
833,0.14054914287440456
834,0.140703293599215
835,0.14089855081673225
836,0.14107805246193747
837,0.1412172444860532
838,0.14139158267220314
839,0.14155136068494747
840,0.14172868012773737
841,0.14186348785175762
842,0.1420272790466916
843,0.14219455423700617
844,0.14235153298478465
845,0.1424866180264079
846,0.14267460647635258
847,0.14282908920844756
848,0.14297688934638636
849,0.14312329033266769
850,0.143352778519716
851,0.14355460107880533
852,0.14370452318851487
853,0.14385586820685928
854,0.144008978500845
855,0.14420013146104524
856,0.14439324045522414
857,0.14445704064972806
858,0.14462566794697096
859,0.1447642642940707
860,0.14487572264287418
861,0.14505481610722806
862,0.14524786919344124
863,0.14540685543828344
864,0.14553231075310755
865,0.14571070013518717
866,0.14592845182593162
867,0.14613181475711395
868,0.14628508804136645
869,0.14641820976636907
870,0.1465508986290912
871,0.14669046663709406
872,0.1468489723538673
873,0.14703571967220203
874,0.14720906091060448
875,0.1473610743026427
876,0.14751472629847368
877,0.1477484349320077
878,0.14792467902564274
879,0.14803980432912048
880,0.14820061706146173
881,0.14837635243244016
882,0.14859043610341516
883,0.14875562003610748
884,0.14890121971994255
885,0.14905849157034212
886,0.1492081144524805
887,0.14935435420881338
888,0.1494977498121505
889,0.1496599846273822
890,0.14982744740973733
891,0.15000974998821578
892,0.1501257058092571
893,0.15031293569224266
894,0.15046977373032844
895,0.15053838639348652
896,0.15077879652796963
897,0.15103620855412372
898,0.15115436800606183
899,0.15129106578392568
900,0.1514689856395687
901,0.15167089976927006
902,0.1518392782923203
903,0.1519747758519983
904,0.1520716470114658
905,0.15219760372939967
906,0.15237400516726102
907,0.15252076193065336
908,0.15272637279711954
909,0.15290598009841247
910,0.15303189759273358
911,0.15319406422341014
912,0.15332436882403838
913,0.15349848955004955
914,0.15364302433996135
915,0.15374950185161274
916,0.15395353939204154
917,0.15415148602273582
918,0.1543171042599761
919,0.15453420718227487
920,0.1545921394045314
921,0.1546435628843011
922,0.15478261632632534
923,0.15497149174181318
924,0.15513316570388866
925,0.1552309666562171
926,0.15531027866854952
927,0.155451398761691
928,0.15552877429265194
929,0.15564043370250702
930,0.15605009415528648
931,0.1563585082287136
932,0.15667884439215668
933,0.15709302855521487
934,0.1575420895551927
935,0.15767874016368608
936,0.15773850846730877
937,0.15793554374452154
938,0.1579885992590212
939,0.15813865465994068
940,0.1583323554155817
941,0.1584159429166493
942,0.158763903267364
943,0.15888006842640184
944,0.15894245401696452
945,0.15913983605463072
946,0.15922527305360415
947,0.15962230749344797
948,0.15982684294042995
949,0.15999974635442374
950,0.16011119159030257
951,0.16028564897145092
952,0.16032555334345003
953,0.16044662243957358
954,0.16048715909731795
955,0.16070463157918144
956,0.16078550683152143
957,0.16087443982279762
958,0.16116357110575635
959,0.1612018888858963
960,0.16123155710526732
961,0.1611253277547511
962,0.16142431536636967
963,0.1614574177317303
964,0.16167230656197124
965,0.16170152389307685
966,0.16168330794052188
967,0.16166820986928734
968,0.16185677582277966
969,0.16201800130645677
970,0.1621697905424692
971,0.16232452745372278
972,0.16244357029480294
973,0.16245490587704778
974,0.1624668261774259
975,0.16265775501931143
976,0.16287314856734342
977,0.1630534835800865
978,0.1633144626254663
979,0.16347008732118623
980,0.16371851705592283
981,0.16399555373981917
982,0.1640454930882106
983,0.1640716622378176
984,0.1640945343130829
985,0.16433257169651438
986,0.16462110238649047
987,0.16475932781282834
988,0.1649388686225103
989,0.1650905358377945
990,0.16518325485977434
991,0.1650556244514306
992,0.16515005966115268
993,0.1654855405701334
994,0.16582000343478814
995,0.16580223244522924
996,0.16607183851759502
997,0.16630154457054078
998,0.1664518612969241
999,0.1665544628930504
1000,0.16679349555393108
1001,0.1666683567301454
1002,0.16677840720486034
1003,0.1669150351310007
1004,0.1670312304892595
1005,0.16719528820184337
1006,0.16735906660775735
1007,0.16755194051809746
1008,0.16768649409596417
1009,0.16778590106587976
1010,0.1679626327413773
1011,0.16816687844300063
1012,0.16835750507498196
1013,0.1685941615864702
1014,0.16879983997835735
1015,0.16890933822464074
1016,0.16910725165896598
1017,0.16924822969830533
1018,0.16934318033946266
1019,0.1694656374562734
1020,0.1695679086797822
1021,0.1696941155352488
1022,0.16990638492454846
1023,0.17010669848256396
1024,0.1703181928065722
1025,0.17050433749367888
1026,0.17061900923163875
1027,0.1707790300140839
1028,0.17083364233408918
1029,0.1709219132072142
1030,0.17110880270994544
1031,0.171275983627913
1032,0.17149616702739606
1033,0.1716920473389587
1034,0.17183369402249465
1035,0.17190875018383384
1036,0.17201533389459311
1037,0.1721863243754942
1038,0.1723648031286425
1039,0.1724965071154403
1040,0.17265817257628208
1041,0.17278628080847439
1042,0.17288412101076897
1043,0.17291428303681788
1044,0.17300578540214714
1045,0.17318530538042884
1046,0.17331770795073917
1047,0.1734193050687894
1048,0.17353447805480365
1049,0.17363020191249687
1050,0.1737928653912035
1051,0.17393087010140149
1052,0.17395317212046216
1053,0.173997232352304
1054,0.17413373169418903
1055,0.174244765215507
1056,0.17439398680127854
1057,0.17459192535394602
1058,0.17469644229722225
1059,0.17481595685259016
1060,0.17495180114118575
1061,0.17506050179977867
1062,0.17513691505248563
1063,0.17524338902392284
1064,0.17538504671062724
1065,0.17550460900957185
1066,0.1756843877103367
1067,0.1757849928870401
1068,0.17590279459492625
1069,0.1760170759600678
1070,0.17609751541296687
1071,0.17621792272724915
1072,0.17631840932001475
1073,0.17644069527195166
1074,0.17660213185802798
1075,0.17676049772950223
1076,0.1768956721794058
1077,0.17704678811718094
1078,0.1772230346123438
1079,0.17732983284899462
1080,0.1774371948847883
1081,0.17759183478091387
1082,0.17765837923672204
1083,0.1777568550600004
1084,0.17782401978397516
1085,0.177961512191073
1086,0.17803930482462035
1087,0.1781352615353155
1088,0.17826183074738522
1089,0.17837800761317363
1090,0.178451431234837
1091,0.17851383540809165
1092,0.17857428550110618
1093,0.17869170457075445
1094,0.17877787565485634
1095,0.17889418086484563
1096,0.17903265687205827
1097,0.17916952929407448
1098,0.1793358629001709
1099,0.17950338091948995
1100,0.1796897222145031
1101,0.1797862206471409
1102,0.17984421390312344
1103,0.17994397073575463
1104,0.1800054261244554
1105,0.18011420538979322
1106,0.18023161482755645
1107,0.18036782105756263
1108,0.18049709534786149
1109,0.1806366886282438
1110,0.18079996772606358
1111,0.18090509735642432
1112,0.18100721351170362
1113,0.1811181164949234
1114,0.18129197597839006
1115,0.18141997914769703
1116,0.1814401475283739
1117,0.18174646130218983
1118,0.18175007383915157
1119,0.1819206902011752
1120,0.18222151903794392
1121,0.18234108954744466
1122,0.18260172309955203
1123,0.1828223695891229
1124,0.1830288099830641
1125,0.1833736888281192
1126,0.1836137164721078
1127,0.18379716761306997
1128,0.18396418680495286
1129,0.1840844673548355
1130,0.18405291871883736
1131,0.1840933281541809
1132,0.1841923877256707
1133,0.184223855249806
1134,0.1842153336719376
1135,0.18423814223745716
1136,0.1843292966657701
1137,0.18442005035171866
1138,0.18451789287421355
1139,0.1845556768298573
1140,0.18458523753889633
1141,0.18471741525893032
1142,0.18485741194124697
1143,0.18502941195823067
1144,0.18510582117696386
1145,0.1851488136448264
1146,0.18518666167490036
1147,0.1851993186269894
1148,0.18526116756301403
1149,0.18511150916922894
1150,0.1852082613572833
1151,0.18509342032359627
1152,0.18521615902252167
1153,0.18529188025863366
1154,0.1853703129857527
1155,0.18536795486455024
1156,0.18538668526376434
1157,0.18541494542546566
1158,0.18547776812390487
1159,0.18544896776553382
1160,0.18553854853138008
1161,0.18562817461975725
1162,0.1856920775928335
1163,0.18580051751004859
1164,0.18590632517036143
1165,0.18594530233884843
1166,0.18607508182849117
1167,0.18617560110407222
1168,0.1863016624402939
1169,0.18640109728097876
1170,0.18647257370251744
1171,0.18656209918047853
1172,0.18669265935265192
1173,0.18680175948000993
1174,0.18693365956089777
1175,0.18706215664730538
1176,0.1871886206549182
1177,0.18733514584440183
1178,0.1874373116849724
1179,0.18753642541937757
1180,0.18763809869718798
1181,0.18770764706145568
