Wavelength,0
350,0.06592180178480278
351,0.06670076848198633
352,0.06726042310967827
353,0.0675768603757379
354,0.068933045852371
355,0.06957867630940298
356,0.07009168315951489
357,0.07065033185573652
358,0.07112309928061977
359,0.07147157975898347
360,0.07214632872397547
361,0.0728687726126175
362,0.07354218265596843
363,0.07387927934195504
364,0.07460716141270765
365,0.07515418791305198
366,0.07547566739944693
367,0.07602784576076921
368,0.07661081594087199
369,0.07726288333672646
370,0.07779308532187586
371,0.07841585275631545
372,0.0789898114706794
373,0.0796418039522319
374,0.08044134137659964
375,0.08123814631850226
376,0.08190622144825561
377,0.08263564893508968
378,0.08326098848766264
379,0.08402851602862677
380,0.084725890038299
381,0.08525619644491948
382,0.0861767142552316
383,0.08702190244440072
384,0.08774425757303844
385,0.08837311891004329
386,0.08907535026163464
387,0.08984922447275018
388,0.09056526571962653
389,0.0913141093367902
390,0.09194506207178105
391,0.09249677315617846
392,0.09305567857732691
393,0.09363918914376942
394,0.09435687175371188
395,0.09513590374777807
396,0.09583999359268325
397,0.09632484102730962
398,0.0968433740501077
399,0.09731016161238798
400,0.097851204616622
401,0.09826950632931358
402,0.09872035259610937
403,0.0991129798574726
404,0.09955451118711417
405,0.09997719470175474
406,0.10041416451560048
407,0.10090301764673928
408,0.10139151596101859
409,0.10185416012309512
410,0.10229710957839938
411,0.10266825236636788
412,0.10306373669110863
413,0.10350849774467677
414,0.10395873363326835
415,0.1042907743377158
416,0.10466990611180577
417,0.10506857705350553
418,0.10541651181338048
419,0.10584560897792392
420,0.10623095714126071
421,0.10659604960386465
422,0.10697999987471857
423,0.10731641043141885
424,0.10766660562882432
425,0.10802171497866644
426,0.10837394136447635
427,0.10873723780539292
428,0.10914565580563867
429,0.10950105272385768
430,0.10989882905269102
431,0.11027222556317481
432,0.11055225514355002
433,0.11085833584189456
434,0.11115841361455694
435,0.11149492366037722
436,0.1118440081326075
437,0.11216730581256779
438,0.11240640017600317
439,0.1126460680967376
440,0.1128722132052738
441,0.11314236988376296
442,0.11340867910703578
443,0.11369370582505177
444,0.1139568063663067
445,0.11423429429806005
446,0.1145287233011873
447,0.11482313997231422
448,0.11512171385240882
449,0.11543884580924639
450,0.11579254306630005
451,0.1161071080239656
452,0.1164400862917446
453,0.11680577909155021
454,0.11716105556857033
455,0.1175331315705054
456,0.11790400977476476
457,0.11825147540546581
458,0.11857858157089804
459,0.11890937718691003
460,0.1192359473335915
461,0.11952422455902531
462,0.11983251004070934
463,0.12015376072623873
464,0.12044253459369679
465,0.12073881712898649
466,0.12101353575064397
467,0.12127382069671086
468,0.12153244767595531
469,0.12177824435617468
470,0.12200644178318004
471,0.12223111939046716
472,0.122488207445127
473,0.12274444659631747
474,0.12297496026380361
475,0.12319191314017872
476,0.12343170378570514
477,0.12367677254336987
478,0.1239148183349405
479,0.12414852039909842
480,0.12435636554158855
481,0.12461620080256186
482,0.12487120108339919
483,0.12513834650051273
484,0.12537802999362108
485,0.1256280134334839
486,0.12586469816561605
487,0.1260929971001006
488,0.1263841642540438
489,0.1266362694896955
490,0.12686549360542576
491,0.12708315337024995
492,0.12732421092213436
493,0.1275395033390259
494,0.12775540418381293
495,0.1279984087338595
496,0.12824565398088303
497,0.12848614655701376
498,0.1287120519183509
499,0.12893223492841682
500,0.12916781372812275
501,0.1294212815563894
502,0.12967085509742773
503,0.1299082899307843
504,0.13014796992866517
505,0.1304095243335392
506,0.1306565021379616
507,0.13087590788071987
508,0.13110601302361274
509,0.1313370344146978
510,0.13158198251501785
511,0.1318154697490368
512,0.13205810765006898
513,0.13230754567473801
514,0.1325482170975537
515,0.13278813083447727
516,0.13303748538229712
517,0.13327472446013708
518,0.1335122662454209
519,0.1337304987245529
520,0.13396249932955057
521,0.13417488777702363
522,0.13438610073662696
523,0.1345940986442462
524,0.13481134833022287
525,0.13506743710985808
526,0.13529586099546786
527,0.13551714347466742
528,0.1357304766001281
529,0.1359554848240746
530,0.13618893474560395
531,0.13640760166423088
532,0.13661853036845198
533,0.13682405214874566
534,0.13703307186716218
535,0.13724745233688335
536,0.13746519567494075
537,0.137672246411611
538,0.13787793190150338
539,0.13810166612672856
540,0.13830433794973856
541,0.1384951016096435
542,0.13869325928645357
543,0.1389034035698835
544,0.1390909785557091
545,0.1392653751161072
546,0.1394597899489325
547,0.1396617216770213
548,0.13984033422188544
549,0.1400076511867818
550,0.14020140508905518
551,0.14037917330314567
552,0.14056690664320776
553,0.14076082897077463
554,0.14093686189692112
555,0.14111884011037035
556,0.14129715287429684
557,0.1414731475103665
558,0.1416815859341039
559,0.14187964163012892
560,0.14208085380711444
561,0.14227057922412029
562,0.1424480077807797
563,0.1426243210409326
564,0.14280596686721742
565,0.1429991699280983
566,0.1431762645773731
567,0.14334492057717935
568,0.14350783337870454
569,0.14367790268757136
570,0.14382636339300842
571,0.14396457442763305
572,0.14412075736357494
573,0.14426378978618665
574,0.14440439033626606
575,0.14454879517712044
576,0.1447069922261123
577,0.14485317908347492
578,0.1450039920463274
579,0.1451526732494465
580,0.14529013447070788
581,0.14543839542593162
582,0.14558672902142833
583,0.14573188596315434
584,0.14589162535877487
585,0.14605920839614822
586,0.14622299276353173
587,0.14637827663868527
588,0.1465554036497827
589,0.14672627309146397
590,0.14687120900437023
591,0.14701296898962488
592,0.1471533188992673
593,0.1473066792399647
594,0.14744008677911336
595,0.14757791592989383
596,0.1477157852708731
597,0.1478493144613606
598,0.14799106561962444
599,0.148117708116757
600,0.14826097040345296
601,0.14840734889191212
602,0.14855132006806307
603,0.14868605607488822
604,0.14882594282005765
605,0.14897324732630662
606,0.14912605007154117
607,0.14928958527075764
608,0.1494496014884764
609,0.14959994704181317
610,0.1497594690849915
611,0.14991568081640058
612,0.1500646659625623
613,0.1502325470542817
614,0.15040055499930768
615,0.15056084005035594
616,0.15072950643475175
617,0.1508896417771174
618,0.1510478611122104
619,0.1511913604434475
620,0.15136117721164877
621,0.15153208353704128
622,0.151698191618052
623,0.1518658479956167
624,0.15203479799916048
625,0.1522044830879098
626,0.15237997738604592
627,0.1525665456361563
628,0.15273967497083993
629,0.15291079853982656
630,0.153100875161307
631,0.1532753934897581
632,0.15344077646645615
633,0.15360557693627985
634,0.1537837448782537
635,0.15394586565079765
636,0.1541222495952146
637,0.15430471410737
638,0.15448845825401086
639,0.1546639565951295
640,0.15486093423617148
641,0.15506456683384667
642,0.15523220651793265
643,0.1554156284360727
644,0.15562220692175882
645,0.1558291172096371
646,0.1560175824859729
647,0.15621725687068483
648,0.15642488669900034
649,0.15661680166308573
650,0.15679072907656294
651,0.15696846792713842
652,0.15715757932496416
653,0.1573584550437243
654,0.1575703960229347
655,0.15777155972121554
656,0.15797028850254144
657,0.158172195698855
658,0.1583524721700667
659,0.1585233391314118
660,0.15869420258711345
661,0.15888780234303207
662,0.1590816572329159
663,0.1592776802751065
664,0.15948879051649661
665,0.15968825905197545
666,0.15988913025056825
667,0.1600937910523988
668,0.16028595241123472
669,0.1604978961188599
670,0.16072204732573186
671,0.1609287538629161
672,0.16112266079486043
673,0.16131812457492778
674,0.1615333885298528
675,0.16176575722766726
676,0.16198189950711755
677,0.1621817772019618
678,0.16239081949539824
679,0.16261831262448243
680,0.16283017141685957
681,0.16302104461135125
682,0.16325417154849517
683,0.16347146276022756
684,0.16369475921565732
685,0.16394305731472683
686,0.16416542068414625
687,0.16440644013140288
688,0.16465023214539465
689,0.16486215212456068
690,0.16509608551988153
691,0.165305785950219
692,0.16551904672638518
693,0.16578852073323141
694,0.16603018233453204
695,0.16624204134334608
696,0.16644386547835233
697,0.16663655622467577
698,0.16684577266482417
699,0.16708004226162546
700,0.16732832760251032
701,0.16755704555601791
702,0.1677801205118744
703,0.1679996819504442
704,0.16821216873217015
705,0.1684185979081587
706,0.16863584644015067
707,0.16886323853233948
708,0.16907826061060313
709,0.16930049285413723
710,0.16952929558858634
711,0.1697477407762825
712,0.16998450700570572
713,0.17021684577676846
714,0.17043903579585168
715,0.1708401832392395
716,0.17114067758476156
717,0.17147282711694203
718,0.1717644407874741
719,0.17202779697909848
720,0.17229303907382407
721,0.17246506171091053
722,0.17267305943063838
723,0.1729046713507155
724,0.17315321391196342
725,0.17344723501327705
726,0.1736839969170842
727,0.1739249569146114
728,0.17416435581234013
729,0.1743857475443844
730,0.17462013892209197
731,0.1748826517111541
732,0.1753008446515099
733,0.17556979697060954
734,0.1757948065317216
735,0.17602136584655648
736,0.17626675324211988
737,0.17651523722784157
738,0.17676557783855656
739,0.17701852775579652
740,0.1772729626733932
741,0.17752729979924475
742,0.17776447770189838
743,0.17800522790104073
744,0.1782592469848011
745,0.17847970013280762
746,0.17870718009263553
747,0.178942702421092
748,0.17917492490711595
749,0.1794219454652144
750,0.1796844011644041
751,0.17994682271856793
752,0.18020302753659395
753,0.18045054974765967
754,0.1806922547286347
755,0.18092856977007904
756,0.18119412690202263
757,0.18147056897919608
758,0.1817341748963724
759,0.18196492954242124
760,0.18227375942580443
761,0.1826594199600196
762,0.1829590465772125
763,0.18314888804899965
764,0.18338750795629294
765,0.18362908540604628
766,0.18383505474511033
767,0.18406001187656804
768,0.18428467528461695
769,0.18450745669567442
770,0.18471942807356004
771,0.18496076775506146
772,0.18522499820307087
773,0.18549500060963153
774,0.1857510001767249
775,0.18599337979860733
776,0.18623404486293005
777,0.18647117515533349
778,0.18673146008781644
779,0.1869928771644077
780,0.18724280014442685
781,0.18748345330616822
782,0.18774552923636073
783,0.1879868376810373
784,0.18823092125495344
785,0.1885147319337532
786,0.18875952781104233
787,0.18900386425951876
788,0.1892708487484724
789,0.18953591992063007
790,0.18978917462588474
791,0.19003434116361162
792,0.1902754220353304
793,0.19053387008030387
794,0.19075993523204426
795,0.1909927271619842
796,0.19126920795597058
797,0.1915133169255229
798,0.19173624847158516
799,0.19196088890617433
800,0.1922198917590918
801,0.19247067507243165
802,0.1927149521554487
803,0.19295448410656302
804,0.1931856217074895
805,0.1934163256850473
806,0.19364659179832602
807,0.19388364549045323
808,0.1941232397414976
809,0.1943663813745179
810,0.19460297012676342
811,0.194831097345362
812,0.19508667832177756
813,0.1953439484791203
814,0.19560915296935746
815,0.19591531211129143
816,0.19618042157518906
817,0.19642966606263185
818,0.1966419802813182
819,0.19678841124677485
820,0.19698534424052855
821,0.19721819260589085
822,0.1974408576714427
823,0.19767978792299484
824,0.19790076846143156
825,0.19810770998459093
826,0.19833167717560463
827,0.1985606545387763
828,0.19878517567564816
829,0.19900032977664156
830,0.19920562617165938
831,0.19942922089494752
832,0.19963506306987905
833,0.1998394131101801
834,0.20003113147045132
835,0.20024853874489526
836,0.2004583086954293
837,0.20065885906086237
838,0.2008638003337323
839,0.20104350568031487
840,0.20123388939861625
841,0.2014277325224058
842,0.20160672292994036
843,0.2018174969190967
844,0.20203201383987776
845,0.20223336803270434
846,0.20246712917309284
847,0.20265893076313365
848,0.20284218452628056
849,0.203042710845352
850,0.20322560551528385
851,0.2034288845463496
852,0.2036541134080169
853,0.2038744517694592
854,0.20405353264358528
855,0.20423362676930656
856,0.20444037839693252
857,0.20463552527490336
858,0.20485279587543248
859,0.20505236711512614
860,0.2052280169025497
861,0.20540906281049953
862,0.2055765180595892
863,0.20575064749046773
864,0.20595114170017753
865,0.20618465661410051
866,0.20636928442498076
867,0.20654463317221108
868,0.20676033527335075
869,0.20697375901530662
870,0.207143754177521
871,0.20730525080266643
872,0.20750166422224628
873,0.20768706493182057
874,0.20788232452702776
875,0.2080669186030282
876,0.20821084341107202
877,0.20838154391701363
878,0.2085844779629928
879,0.20879410136893373
880,0.20897065874795517
881,0.20917218440799995
882,0.20938197343437187
883,0.20956740083038816
884,0.20972970262713775
885,0.20990940238785927
886,0.21011865287193307
887,0.21032254306638326
888,0.21049309679974945
889,0.21067848842532852
890,0.2108747811881842
891,0.2110066227869075
892,0.21109775257412405
893,0.21122029487423324
894,0.21143363939618443
895,0.21164830410496388
896,0.21180345506018344
897,0.21200708753773329
898,0.21223764320147587
899,0.21239901155041724
900,0.2125566796956347
901,0.21274882870553974
902,0.21296910317471224
903,0.21316734757661568
904,0.21333709123336184
905,0.21348994183545805
906,0.2136992206891103
907,0.2139064486823154
908,0.21413673542859313
909,0.2144227093057775
910,0.2146592963411589
911,0.21470229759814033
912,0.21490863423005374
913,0.21510868627591517
914,0.21529478708249594
915,0.21558322327986307
916,0.2157292812128249
917,0.2158684481474755
918,0.21604928394782968
919,0.2162581054399818
920,0.2163681708259515
921,0.21654605306990007
922,0.21679001186961475
923,0.21691503064762596
924,0.2171270943848927
925,0.2172926502702144
926,0.21741994861507563
927,0.21753622560587493
928,0.21762322886685098
929,0.2177850844621111
930,0.21803332144534526
931,0.21804720465024005
932,0.21818480564492448
933,0.21828620866206994
934,0.21838966903516208
935,0.2185672156989156
936,0.21874279323819318
937,0.21905348733334057
938,0.21920821639203136
939,0.21967905700185614
940,0.21982803782505073
941,0.21996050384278037
942,0.220225514627403
943,0.22026199156247284
944,0.220345777019253
945,0.22054161196644623
946,0.22083144813109393
947,0.22113498937576717
948,0.22119281620406828
949,0.22143519590091926
950,0.22163627335871497
951,0.221915790818563
952,0.22208066277777294
953,0.22218811674599132
954,0.22251569158938989
955,0.22238853474242173
956,0.22259762169971878
957,0.22289354395078526
958,0.22321241732390612
959,0.2233604522863663
960,0.22367562545944236
961,0.22412003740676173
962,0.22409641618947213
963,0.22439196906771117
964,0.22448349389108307
965,0.22467896788119532
966,0.22492795020300288
967,0.2252395517446083
968,0.22546770114507297
969,0.2255866826495772
970,0.22567172213886033
971,0.2259578263993866
972,0.2261217944067535
973,0.2262996943400692
974,0.22650578540467636
975,0.22675284813268226
976,0.22692772897358593
977,0.2271166730115453
978,0.22725967728468152
979,0.22759463747762718
980,0.22774038415003287
981,0.22796171177415364
982,0.2281147724352342
983,0.2284056125694986
984,0.2285926572402716
985,0.22883111052862345
986,0.22913978688602063
987,0.22928861528853034
988,0.22944749264529243
989,0.22960652379385857
990,0.22976300957992332
991,0.2299309028899888
992,0.23019414432462576
993,0.23047545408151388
994,0.2307758298074277
995,0.2308402693125967
996,0.2311112720284279
997,0.23108779328706094
998,0.2312346102783318
999,0.23141721961910283
1000,0.23174731874505003
1001,0.23431827663123658
1002,0.23452555861271512
1003,0.2347348868734523
1004,0.23495052094696156
1005,0.2352070501199646
1006,0.2354158274625167
1007,0.2355911598495878
1008,0.23574830841867173
1009,0.235904932288255
1010,0.23612831612490887
1011,0.2363222084456499
1012,0.2365338299718182
1013,0.23671685965354167
1014,0.2368859521715067
1015,0.23704324591444945
1016,0.23721726666780185
1017,0.23743327472480869
1018,0.23759073752424725
1019,0.23778354874413288
1020,0.23795908823448778
1021,0.23815166153882578
1022,0.23834383557347405
1023,0.23854450068957844
1024,0.2387540528084123
1025,0.23892727437002576
1026,0.23909440199474702
1027,0.23926731342013646
1028,0.23944950987854918
1029,0.2396004124619591
1030,0.23973001672397098
1031,0.23993437699932718
1032,0.24016225336343217
1033,0.2403421811691806
1034,0.2405182030639283
1035,0.24070057957645724
1036,0.24087375478868267
1037,0.24102846918460263
1038,0.24119142438674795
1039,0.24133668170831468
1040,0.24148611288633096
1041,0.24164608629104953
1042,0.2418290964433658
1043,0.24200572420216454
1044,0.24216404517653148
1045,0.2423588906556542
1046,0.24250125129929473
1047,0.24269323721758684
1048,0.24288141137119226
1049,0.2430146850008808
1050,0.24316938306397654
1051,0.24334921468786547
1052,0.24351893430592594
1053,0.24368106320641464
1054,0.24385777454038793
1055,0.2440037702900189
1056,0.24415943494403797
1057,0.24434285688449148
1058,0.24450971805172894
1059,0.24467760053805607
1060,0.24481161977868643
1061,0.24497699993585909
1062,0.24511088428958128
1063,0.24527054070613846
1064,0.24548891154897112
1065,0.2456251887795401
1066,0.2458001443756574
1067,0.2459692353506241
1068,0.24611233420038714
1069,0.2462661416314032
1070,0.246398977992802
1071,0.2465905752137793
1072,0.24681718680322226
1073,0.24699569893701767
1074,0.24716089410535472
1075,0.24734118455149173
1076,0.2474764352685192
1077,0.2476115509164188
1078,0.2477566025919107
1079,0.2479172978920113
1080,0.24806889871060744
1081,0.24824384977740055
1082,0.2483763180682727
1083,0.2485236270972689
1084,0.2486558066299426
1085,0.24881840870201888
1086,0.24898135287899226
1087,0.24916084746165426
1088,0.2493174377028144
1089,0.24947062865180542
1090,0.24962772803328787
1091,0.2497222675506779
1092,0.24987523458701966
1093,0.2500006821077007
1094,0.25011875473821465
1095,0.25028754912587925
1096,0.2504296992243944
1097,0.25061012364374285
1098,0.2508092868593917
1099,0.2510116027642283
1100,0.25125775970122277
1101,0.2514446525259644
1102,0.25163785660452986
1103,0.25185164442002256
1104,0.252084777162758
1105,0.2522591140659158
1106,0.2524289223247429
1107,0.2526606255245166
1108,0.25290628408132987
1109,0.2531239442670924
1110,0.25328499318158837
1111,0.25354538374399377
1112,0.25363605354031593
1113,0.2537715496497226
1114,0.2539246580221931
1115,0.2542929579231064
1116,0.2546513911792242
1117,0.2550512569184027
1118,0.25538288414143806
1119,0.2555748048783544
1120,0.2559567647097175
1121,0.25631433722407393
1122,0.2565268523847585
1123,0.2566417098219558
1124,0.2568305244379374
1125,0.2570032759494102
1126,0.25719112388429743
1127,0.25733833975162324
1128,0.2574866658338838
1129,0.257660970371031
1130,0.2578623039867224
1131,0.2580616255433342
1132,0.2581295836818493
1133,0.2580854097377964
1134,0.25809143220281916
1135,0.25825289582429517
1136,0.25843116590183535
1137,0.25857538893765036
1138,0.2587269911882951
1139,0.2588409386440177
1140,0.2588076117511885
1141,0.25895127916360894
1142,0.2590948266856051
1143,0.2592052049496206
1144,0.25938936512322247
1145,0.25951020218831006
1146,0.2596514812127359
1147,0.259820196949891
1148,0.25993476516555253
1149,0.260040704766047
1150,0.26020882875177265
1151,0.2604330433053066
1152,0.26039419802281266
1153,0.26050533624825223
1154,0.2606754729549911
1155,0.2606573342570603
1156,0.2607135845036306
1157,0.2607732637634472
1158,0.26085913641065683
1159,0.2609642825870663
1160,0.26104662455122546
1161,0.261174859153935
1162,0.26129612233427224
1163,0.26140716885876947
1164,0.2615021777918062
1165,0.2615967078503351
1166,0.26170798315639127
1167,0.2618115328591796
1168,0.2619299529480392
1169,0.2620870624510511
1170,0.2622468942560689
1171,0.262358822195356
1172,0.26247091782148624
1173,0.2626182268509406
1174,0.26277258136143583
1175,0.26293552004527154
1176,0.2631019919170813
1177,0.26327513219800447
1178,0.26345412799786366
1179,0.26362800339151304
1180,0.2637663168284325
1181,0.26391192308123024
1182,0.264046815099588
1183,0.2642006682933585
1184,0.2643685104678838
1185,0.26457831430672785
1186,0.26476477731967274
