Wavelength,24JUL18
350,0.053011501096277266
351,0.05332327207016138
352,0.053647704303841526
353,0.05372743487156627
354,0.05462092805950622
355,0.055139387055032615
356,0.055424380990473164
357,0.0557792714784882
358,0.056063940253349695
359,0.05623859822189847
360,0.05675104244932812
361,0.05721887130085798
362,0.057652943370645984
363,0.05795489448737766
364,0.058456240046791084
365,0.058772638971460914
366,0.0588903948997552
367,0.05920772609407014
368,0.059660413564162476
369,0.06010304036496442
370,0.060424213321282096
371,0.06074680494458236
372,0.061097808785691675
373,0.061539907876899044
374,0.06215903954894479
375,0.06275792300355612
376,0.06324508813598487
377,0.06379053711863047
378,0.06431585836914067
379,0.06481325856074321
380,0.06523306330468585
381,0.0656069412375741
382,0.06638522605669764
383,0.06697488950145344
384,0.06743229765337866
385,0.06787008166743963
386,0.06836461387567501
387,0.06899027911101774
388,0.06950801876286258
389,0.07003574541923574
390,0.07050275722558502
391,0.07088898505113267
392,0.07126847738610412
393,0.07171669120857294
394,0.07220312973807444
395,0.07278896976234688
396,0.07334414635881245
397,0.07374788881682476
398,0.07409617997547321
399,0.0744393984924054
400,0.07484508835922848
401,0.075201536332932
402,0.07549520936814404
403,0.07577124841207208
404,0.07613143031608881
405,0.07648277204529719
406,0.0768528463960614
407,0.07721394704105489
408,0.07755691790537282
409,0.07798215976874075
410,0.07830260161001165
411,0.07856012219622492
412,0.07889427922117725
413,0.07927953059723196
414,0.07964032064038562
415,0.0799211528192789
416,0.08029000037164424
417,0.08060132179218293
418,0.08089966895693601
419,0.08126352006410177
420,0.08164781639177851
421,0.08193778224091908
422,0.08226318601567051
423,0.08257905926258409
424,0.08286849894816309
425,0.0831681342030266
426,0.08347036598515162
427,0.08379670064698569
428,0.08419633873804322
429,0.08454270536832337
430,0.08488845196586703
431,0.08518846276469397
432,0.0854724612965466
433,0.08574926374510812
434,0.08604566250662368
435,0.0863328284601263
436,0.08664893347111974
437,0.08693000158970379
438,0.0871383892908596
439,0.08734335677128541
440,0.08758935052947601
441,0.08786836197615035
442,0.08811807802516812
443,0.08834417966342158
444,0.08857932821858416
445,0.08882821312414643
446,0.0890936558459278
447,0.08936922810245684
448,0.08964337484586725
449,0.08991547832343379
450,0.09020197835516763
451,0.09047829592265197
452,0.0907762122251459
453,0.09111476606947032
454,0.09142952923217479
455,0.09174302767722226
456,0.09207158586598452
457,0.09238249158540368
458,0.09266525696579975
459,0.09296385010902472
460,0.0932585152359939
461,0.09351480756086611
462,0.09379506678273591
463,0.09407814307303769
464,0.09434101442052151
465,0.09462073990559282
466,0.0948618652857468
467,0.09510796390346676
468,0.09533100675733357
469,0.09555092293957762
470,0.09577556545362662
471,0.09600533600599774
472,0.09624564273242175
473,0.09646689093853263
474,0.09667238063458605
475,0.09688843819554888
476,0.09712471251562484
477,0.09733823226681584
478,0.09754973406354342
479,0.09776535564821145
480,0.09798161376046027
481,0.09818886770301424
482,0.0984058417475554
483,0.09864613830778288
484,0.09886006128708465
485,0.09909006537715265
486,0.09932190252066392
487,0.09952150537771304
488,0.09975204464809527
489,0.0999865675318464
490,0.1001966912924862
491,0.1003764188858732
492,0.10059740905109851
493,0.1007913622200945
494,0.10098680501037943
495,0.10120052622152734
496,0.10141545570987301
497,0.10161503500632194
498,0.10180299714444935
499,0.1020010147383098
500,0.10222297153635806
501,0.10245492304171336
502,0.1026712290326541
503,0.10288061561006023
504,0.10308492659203825
505,0.10330457775556576
506,0.10351974947996193
507,0.10371182330109341
508,0.1039065847833566
509,0.1041003503017924
510,0.10431583262811206
511,0.104527520650533
512,0.10474335017971367
513,0.10495448506975433
514,0.10514388254726688
515,0.10536099055528154
516,0.10559646572691739
517,0.10581418590984354
518,0.10600690593717539
519,0.10620625080520898
520,0.10641947119275544
521,0.10659333328383898
522,0.10679553181976452
523,0.10699585078890039
524,0.10718936390093708
525,0.10741359176063364
526,0.10760369833106731
527,0.10780190147425861
528,0.10802574555821148
529,0.10823858489884501
530,0.10843612631623338
531,0.10861450867738781
532,0.10880335547769457
533,0.1090076875185987
534,0.10920358007333666
535,0.10938234089982075
536,0.10957254581879147
537,0.10977090527655062
538,0.1099648048788151
539,0.11015447271219692
540,0.11034795496447164
541,0.11052864004539584
542,0.11069906120490687
543,0.11086430759004783
544,0.11104830560830954
545,0.11120987515888571
546,0.11135998066835426
547,0.11154202767803648
548,0.1117158958465527
549,0.11187026407636042
550,0.1120192390050746
551,0.11216529891335851
552,0.11232581166241586
553,0.11250455046291216
554,0.11267191351250894
555,0.11283018234222406
556,0.11299532008825425
557,0.11317296709242325
558,0.11334411242193365
559,0.11351380690494897
560,0.11369741592427554
561,0.1138542352362642
562,0.11401870755953991
563,0.11418268853687166
564,0.11433719635079596
565,0.11446288575988885
566,0.11458896267303291
567,0.11471927944896804
568,0.11484193035963512
569,0.11495611958421585
570,0.11507139302176511
571,0.1151938786509245
572,0.11532364694767197
573,0.11547915177976226
574,0.11560158888274169
575,0.1157190514255084
576,0.1158488812059857
577,0.11597747239147829
578,0.11611334317934853
579,0.11624376012058674
580,0.11634896768349254
581,0.1164621111726799
582,0.11657758980299616
583,0.11668593105457566
584,0.11680573098097893
585,0.1169221440013858
586,0.11702991430011946
587,0.1171144471746644
588,0.1172229203594948
589,0.11734392269576252
590,0.11746742049832379
591,0.11759659972327495
592,0.11771612770642205
593,0.11784137023379529
594,0.11796432489977961
595,0.1180777391469077
596,0.11820342648126378
597,0.11833072474333498
598,0.1184521962448524
599,0.11856427469635494
600,0.11869196346051039
601,0.11882824038981778
602,0.11894580182974974
603,0.11905739462278585
604,0.11917894462764339
605,0.11929599684351276
606,0.11941973088190144
607,0.11954825769519882
608,0.11967139117079964
609,0.11978619313288297
610,0.11990972890712581
611,0.1200404723385392
612,0.12017471512537317
613,0.12030435294962474
614,0.12043834593678862
615,0.12056480262045158
616,0.1206949005180482
617,0.12081834184604387
618,0.12095260258198728
619,0.12108802523784956
620,0.12121333297241701
621,0.12134048764976658
622,0.12147093833914105
623,0.1216010900266013
624,0.12176048004578317
625,0.12190557266448329
626,0.12204440211573012
627,0.12218759851697442
628,0.12234112145160622
629,0.12248593004700478
630,0.12262895837028694
631,0.12277352621325069
632,0.12289672833713719
633,0.12303173845591078
634,0.12318767718882176
635,0.1233278014421792
636,0.12346211760999057
637,0.12359942863663276
638,0.12375061745151876
639,0.12389323926132147
640,0.12404800820648171
641,0.12421355757604456
642,0.1243556879607319
643,0.12449826675102069
644,0.12465002061743818
645,0.12480723473349822
646,0.12498747584458939
647,0.1251461627132096
648,0.12529903051799812
649,0.1254296501267762
650,0.1255989872311813
651,0.12577176887167696
652,0.12592905585285658
653,0.12608587117138886
654,0.12625467192311632
655,0.1264212750041792
656,0.12659565135902423
657,0.12675663213732297
658,0.12691863238636547
659,0.12708255994755377
660,0.12721681421097747
661,0.12736053141012432
662,0.1275214613525011
663,0.12769228363980223
664,0.12782329770860212
665,0.1279741981339111
666,0.12814642370328733
667,0.1283046912164012
668,0.12845795385340647
669,0.12861348243650472
670,0.12877333833543933
671,0.12894374743669226
672,0.1291186161234894
673,0.12928626856489828
674,0.12944358509331524
675,0.12962130769887753
676,0.12978542686531785
677,0.12994699938237497
678,0.13012405927669024
679,0.13029919777522514
680,0.13047475145538837
681,0.13065143830287174
682,0.13085439167649526
683,0.131028385381957
684,0.13121960708142452
685,0.1314544260600501
686,0.13164905275007371
687,0.13185150303224896
688,0.13208761337548441
689,0.13233384343261165
690,0.13254471952977653
691,0.13272479689483524
692,0.13290750385332845
693,0.1331159525949001
694,0.13330539011375792
695,0.13351124341357823
696,0.1336943296518614
697,0.13387834139990065
698,0.1340706141794546
699,0.13426106621861247
700,0.13445756618160123
701,0.13464321121206554
702,0.13484502127758927
703,0.1350626536498924
704,0.13522999040216
705,0.1353934366055018
706,0.135581707740538
707,0.1357912841591632
708,0.1359642597841268
709,0.1361542833403569
710,0.13635550509051636
711,0.1365278092276726
712,0.13671426590794106
713,0.13690717487760606
714,0.1370850989286126
715,0.13731591105968677
716,0.13760036834910502
717,0.1378428456714049
718,0.13793794919402508
719,0.13812030526311736
720,0.1383327799117985
721,0.1386031012224789
722,0.13878709564459657
723,0.13892599477007403
724,0.13909472967762881
725,0.1392930019098074
726,0.13951056076681215
727,0.13969995667546925
728,0.13988408989351037
729,0.14006673090143124
730,0.14026625475648055
731,0.1404382373500509
732,0.1406181226116269
733,0.14078323568975798
734,0.14099993893243284
735,0.14119872040848186
736,0.14140033349142755
737,0.1415745976501532
738,0.14178444615855484
739,0.14199169758165459
740,0.1421854201972778
741,0.1423890597419319
742,0.14257493218840717
743,0.14275486436546528
744,0.1429515241982116
745,0.14314855582020553
746,0.14334417537644684
747,0.14353788624572084
748,0.14374890534923662
749,0.14395086404558094
750,0.14416144146952425
751,0.14438049094214583
752,0.14457706820067495
753,0.14478875325824192
754,0.14499652713878358
755,0.1451679470131569
756,0.14538627642158708
757,0.1456198560685575
758,0.14583237679460603
759,0.14599998901363298
760,0.14617329310404914
761,0.1464836000933128
762,0.14683235892728463
763,0.14699710163853785
764,0.14717674493144411
765,0.1473742791918888
766,0.1475552408046557
767,0.14772524020478156
768,0.14791976443149035
769,0.1481109467339763
770,0.14828133316102887
771,0.1484723264377235
772,0.14867874085213356
773,0.14889685754162024
774,0.14912629418904183
775,0.14932787509955342
776,0.14952673494168528
777,0.14973036133727224
778,0.14994268434670235
779,0.1501419431119998
780,0.15034376780357017
781,0.15056540919795783
782,0.1507783741642452
783,0.150976619654182
784,0.15117964882931606
785,0.15140292244880832
786,0.1515935390362061
787,0.1517701624917911
788,0.15196089450470937
789,0.15217992417977227
790,0.1523703692712119
791,0.15257052557957923
792,0.1528015096502923
793,0.15302132651392927
794,0.15321608618480115
795,0.1534038343722936
796,0.15360053483358208
797,0.15377268168089248
798,0.15398509016347262
799,0.1542170371834844
800,0.15440635148291354
801,0.15459144198442426
802,0.15479917934553533
803,0.15502226801953545
804,0.15521628248869068
805,0.1554026988437069
806,0.15560376096755618
807,0.15582011718201144
808,0.15600339911862848
809,0.15617710332968987
810,0.15636489418485938
811,0.15656492469784705
812,0.15679249784586147
813,0.1570136000402288
814,0.15715530491324897
815,0.15735618248194827
816,0.1575573820280809
817,0.15774473075534087
818,0.1579264615342717
819,0.15813742887755494
820,0.15831483266734736
821,0.1584911307299321
822,0.15869852226742842
823,0.15882017580814606
824,0.15903434903898392
825,0.15926204458728865
826,0.15945767997481763
827,0.15959081496992378
828,0.15976855591945538
829,0.1599705711041794
830,0.1601547698780826
831,0.16031040407175356
832,0.1604834404745175
833,0.1606472359576951
834,0.16077177072480459
835,0.16096446130648157
836,0.16116062976739348
837,0.16131825241478703
838,0.16147621546468965
839,0.1616150932732551
840,0.16177353861704322
841,0.16194909402802837
842,0.16210989080651106
843,0.1622426473996919
844,0.16238961618753864
845,0.1625736845343314
846,0.16271199776058962
847,0.16288035393214467
848,0.16305740082703896
849,0.1631719791760785
850,0.163290912389836
851,0.16345189678085828
852,0.16362598996098685
853,0.16374990254898664
854,0.16394689950735208
855,0.16412016445104463
856,0.16425485939741385
857,0.16441611253898186
858,0.1645461127932485
859,0.16465910419039106
860,0.1647862975269418
861,0.16492288769298324
862,0.16508411142203444
863,0.1652404232221158
864,0.16536783897971444
865,0.1655071908226553
866,0.1656818893018751
867,0.16584803749495158
868,0.16595212104194068
869,0.1661011262485771
870,0.16626337866834395
871,0.16641652927192516
872,0.1665405755245102
873,0.16669361271905875
874,0.16682163110188483
875,0.16693709749985697
876,0.16711218112949178
877,0.16727165021558682
878,0.16740399399015699
879,0.16754340664443323
880,0.1676625657003448
881,0.1677782591684312
882,0.16790538191052318
883,0.16805337340919518
884,0.1682194092294571
885,0.16834441264422623
886,0.16849666200083493
887,0.16868843392387622
888,0.16881463840600858
889,0.16894432662694564
890,0.1690589190894159
891,0.16916354524871186
892,0.16934753874713784
893,0.16951679423181626
894,0.16966527159516304
895,0.16979349392856097
896,0.1699331580015317
897,0.17008882107312528
898,0.17024091412213918
899,0.1703164480217072
900,0.1704113918135495
901,0.1705684807457681
902,0.17076599467137316
903,0.17093006585646447
904,0.17110566891359502
905,0.17120895162670635
906,0.17128475691593992
907,0.17142003200365297
908,0.17155376230776026
909,0.17170817064378716
910,0.17186091744787946
911,0.1719598919337159
912,0.17216196930999955
913,0.17235249837056446
914,0.17250551522367452
915,0.1726114170149724
916,0.1727407555516799
917,0.17290420327001815
918,0.17304026709586645
919,0.17309651837110357
920,0.17333776649628296
921,0.17356778434164455
922,0.1736630035004033
923,0.17372005873055685
924,0.17390476142407793
925,0.17402012726670096
926,0.17396750357976642
927,0.1741078131347791
928,0.17435131776128998
929,0.17446571040988876
930,0.1746524502571927
931,0.1747276602986817
932,0.17465274673308245
933,0.17470327113936032
934,0.1749658507613217
935,0.17511569539809785
936,0.17530145988826795
937,0.1754517380638969
938,0.17550817952954753
939,0.17564892858883013
940,0.17584262756283597
941,0.17603901159844534
942,0.1762068740138338
943,0.1763400856187839
944,0.17639177618859134
945,0.17646308840521052
946,0.17665705812811172
947,0.17691486359609349
948,0.17710436515596945
949,0.1773161547837741
950,0.17745329516026587
951,0.17737233637523436
952,0.1775537737620133
953,0.1776085698020311
954,0.17770827413716145
955,0.1778565899500381
956,0.17800135074071058
957,0.17822506778276032
958,0.17843721378539434
959,0.1785866391367978
960,0.1787028710518471
961,0.17877172594590943
962,0.17885359914641108
963,0.1789646579221139
964,0.1793283249045869
965,0.17955456370491268
966,0.17963936739935704
967,0.17972910750894253
968,0.17999466315496895
969,0.1802337726029746
970,0.18040060821718737
971,0.1803668663517027
972,0.18046788280108772
973,0.18080568647653805
974,0.18097228496598422
975,0.18090016902024464
976,0.18112406845520362
977,0.18127625160236163
978,0.18141186943520532
979,0.18160688881663684
980,0.1818113102355692
981,0.1819100551496777
982,0.1819396952949371
983,0.18214709335914991
984,0.18230825957103894
985,0.18257827687103934
986,0.18287804257962323
987,0.18298593787190962
988,0.18291945285127703
989,0.18295951297488292
990,0.1831951145711978
991,0.1836175733202775
992,0.18359496928910496
993,0.18376573566193782
994,0.1838730304140314
995,0.18405513419023617
996,0.1842787603136118
997,0.18429218899863817
998,0.1843501705138746
999,0.18450521088130178
1000,0.18488290397308843
1001,0.18665012367094672
1002,0.18685513247556987
1003,0.1870208376805398
1004,0.18716009675148587
1005,0.18722822519594323
1006,0.18727189467583477
1007,0.18736263624989374
1008,0.187512322053022
1009,0.18766680386745171
1010,0.18787508041701104
1011,0.18801599027107951
1012,0.1881568668703426
1013,0.1883058450838941
1014,0.18845668488466627
1015,0.18857817221589052
1016,0.18867831415709635
1017,0.18885152933636895
1018,0.1890119497368366
1019,0.18914963885021746
1020,0.1892258955343264
1021,0.1893189305342765
1022,0.1894476845250419
1023,0.18963832047230228
1024,0.18982778437183095
1025,0.18987751650159712
1026,0.1899634016651623
1027,0.19008420547124716
1028,0.19022374108210469
1029,0.19038327826150567
1030,0.1904657616873493
1031,0.1905994109709248
1032,0.1907697503245443
1033,0.1909167363082619
1034,0.1910836231012107
1035,0.19121754825886753
1036,0.19141462154128652
1037,0.19155599167232062
1038,0.19177687908998167
1039,0.19190516411570002
1040,0.19200169673760997
1041,0.19211833321561222
1042,0.19222473054112676
1043,0.1923233081850777
1044,0.19244477167698143
1045,0.19260064903781754
1046,0.19275380228193403
1047,0.19290124463529776
1048,0.1930522681983352
1049,0.19311886082554802
1050,0.19321294129169964
1051,0.19329374890102136
1052,0.19344903489720927
1053,0.1936230432411171
1054,0.19381186184428376
1055,0.19388560816527184
1056,0.1939774247271427
1057,0.19404145347354818
1058,0.1941864715801688
1059,0.19432769958447899
1060,0.19446327560234247
1061,0.19457291479944885
1062,0.19461460440669384
1063,0.19471285259714
1064,0.19484971869016293
1065,0.19498590469932575
1066,0.19515269939776503
1067,0.19524462262450692
1068,0.195407482513413
1069,0.19554375820109637
1070,0.19562513270326035
1071,0.1957486402417739
1072,0.19585807118005874
1073,0.19597327750086552
1074,0.19607638344817535
1075,0.19622600368649024
1076,0.19636512878232504
1077,0.19647030802559823
1078,0.19662738426347967
1079,0.19674587979574004
1080,0.19687036910577072
1081,0.19700001178784363
1082,0.1970812037605173
1083,0.19720145718064658
1084,0.19727783073418131
1085,0.19729798096274165
1086,0.19736914214326579
1087,0.19745887106992607
1088,0.1975632480742473
1089,0.19768042379638168
1090,0.19783291146190973
1091,0.19795369950130942
1092,0.1981190519475024
1093,0.1981883219064814
1094,0.1983142603172541
1095,0.1984424710581273
1096,0.19854998341987595
1097,0.19867079679689495
1098,0.1987484465382155
1099,0.19885032369688532
1100,0.19897762196220234
1101,0.19905958787640435
1102,0.1991750840720687
1103,0.19927280922931384
1104,0.1993827893270746
1105,0.19950202769528047
1106,0.19963574758402158
1107,0.19971757344001945
1108,0.19981894279370316
1109,0.19992850017919064
1110,0.20007149033278498
1111,0.2000624710702224
1112,0.20018558695720023
1113,0.2002504090581037
1114,0.20040392786625333
1115,0.20062013412833968
1116,0.20068129441399196
1117,0.20072849561350245
1118,0.20073008207400989
1119,0.20084330696692182
1120,0.2008934678574737
1121,0.20103956674318285
1122,0.2011779606354575
1123,0.20121274179436938
1124,0.20132941194514326
1125,0.20156056632312458
1126,0.20173974606488843
1127,0.20187444758159773
1128,0.20205484390618517
1129,0.20224078043582966
1130,0.20235707611346757
1131,0.20243907491895297
1132,0.20239588411865336
1133,0.20251098890634595
1134,0.20255938703145238
1135,0.2027016069359172
1136,0.20286942603479366
1137,0.2029542684885885
1138,0.2029494549919013
1139,0.2030050454812361
1140,0.2031253208828962
1141,0.20331688435230766
1142,0.203481529372338
1143,0.2036318922428204
1144,0.20365325161811237
1145,0.20373378673756173
1146,0.2037724339325235
1147,0.2037672287561903
1148,0.20384493050007957
1149,0.20395236589026394
1150,0.2039493314773375
1151,0.20397259743090468
1152,0.20412874708040496
1153,0.20434838870845773
1154,0.20461172794976204
1155,0.20483462227732052
1156,0.2049454807806766
1157,0.20529294559802064
1158,0.20552193262978952
1159,0.20570356093638947
1160,0.20573217540812938
1161,0.20575234170698073
1162,0.20577125850951009
1163,0.20586539520617952
1164,0.20591475335208953
1165,0.20602905133996652
1166,0.20615733481300452
1167,0.2063371755629641
1168,0.2065191882793633
1169,0.20665737082660743
1170,0.20679708004050162
1171,0.20693036037237963
1172,0.20707925308984076
1173,0.207183374721853
1174,0.20729325536038118
1175,0.2074056930354068
1176,0.20750489585058363
1177,0.20764050334891396
1178,0.20774883505971764
1179,0.20785361073760067
1180,0.20800517761774726
1181,0.20815018311618028
1182,0.20832469414986265
