Wavelength,20MAY18CSIRO
350,0.05315150517933398
351,0.05344024202909514
352,0.05385788947842079
353,0.054137927064241156
354,0.05438905518186157
355,0.05471464063253248
356,0.05505573699364571
357,0.055434561814321395
358,0.05581877427907922
359,0.056225589191944585
360,0.056693828747732426
361,0.05711897015447337
362,0.057574084061577206
363,0.05800574034965002
364,0.05851457290139451
365,0.05898697931881693
366,0.059528536713439224
367,0.06003127334400319
368,0.06067719259877721
369,0.061463180887926044
370,0.06218540415641222
371,0.06299031320468179
372,0.06394482621878587
373,0.0647842899022762
374,0.06571778907468992
375,0.06665963326904631
376,0.06764061448718886
377,0.06869649041901041
378,0.06975014135155128
379,0.07092594769531602
380,0.0721503618114799
381,0.07334799019944412
382,0.07463170113457848
383,0.07604929525129508
384,0.07755822436832768
385,0.07898210936346688
386,0.08040102867478513
387,0.08193271986897048
388,0.08340571452445679
389,0.08488460711318024
390,0.08627213426332395
391,0.08769281603260871
392,0.08915345279090184
393,0.0905748901459477
394,0.0920029208820612
395,0.09343464878204799
396,0.09487477762372816
397,0.09619858067201167
398,0.09752376779205901
399,0.09881559668901489
400,0.09998520976191094
401,0.10106056645774919
402,0.10211387090529708
403,0.10316602549859875
404,0.1043019947458919
405,0.10546059873233714
406,0.10657870789424596
407,0.10787134789769363
408,0.10923097771610298
409,0.11062158685522878
410,0.1120205763153877
411,0.11341792407438148
412,0.11481160384611368
413,0.11618279225805628
414,0.1175850180631857
415,0.11901096404201736
416,0.1205038237121092
417,0.12203647753886884
418,0.12373202886961986
419,0.12548336614638522
420,0.12720850911019452
421,0.12895994203435762
422,0.1307981320714143
423,0.13263093198392578
424,0.13442416900009965
425,0.13649517883847978
426,0.13867805824250007
427,0.14098876791799897
428,0.14340911517717128
429,0.1458329279977388
430,0.14828819731942341
431,0.15071405715382596
432,0.15309605605603022
433,0.15546909552762056
434,0.15791563667826064
435,0.16023086246250395
436,0.16240441765040464
437,0.1645517292655911
438,0.16668742416980772
439,0.16878973769254424
440,0.17093965352364426
441,0.17300770284402978
442,0.17484258183430448
443,0.17658666331057454
444,0.17827742979352074
445,0.17984055223545917
446,0.18123544757079166
447,0.18250389547225254
448,0.18365199886740105
449,0.1846637027373407
450,0.18559227968559713
451,0.18639392657229759
452,0.1870866227782583
453,0.18768781013108016
454,0.18818734801428633
455,0.1886360379120952
456,0.18902838340872488
457,0.1893475184589373
458,0.1896708719287471
459,0.189952058212108
460,0.19019310671903142
461,0.19047589897674472
462,0.19077977385786582
463,0.19107638714803926
464,0.19143086093458073
465,0.19180367346049595
466,0.19223822243400138
467,0.19273227037779517
468,0.1932613029071486
469,0.19382609757302902
470,0.19448120093173643
471,0.19522054896256522
472,0.19597646340657865
473,0.19683930470755925
474,0.1977671437839145
475,0.1987820145080882
476,0.1998840416558213
477,0.20110005890797375
478,0.20240807663049243
479,0.20367835879259436
480,0.20505717266578932
481,0.20664602700147602
482,0.2083530250599132
483,0.21012241247494698
484,0.21206810800038722
485,0.2140910989415733
486,0.21619668658211055
487,0.21849824307441731
488,0.22061120959859534
489,0.22280537671993014
490,0.22519814432950971
491,0.22762259649279723
492,0.22994319374335068
493,0.2323111153181034
494,0.23477676119652705
495,0.2374213288624813
496,0.23981105090182317
497,0.24218825896248622
498,0.2447252263710378
499,0.2472148014595532
500,0.24980014586049387
501,0.2523167684014701
502,0.25486782323706286
503,0.25753690890696895
504,0.2601958467415749
505,0.2627623294662748
506,0.26538053382314597
507,0.26786557630177615
508,0.27035724702602465
509,0.2730914659900401
510,0.27588133888358896
511,0.27850563119159366
512,0.28112749720481844
513,0.2837592594820089
514,0.2864329278345652
515,0.28917937923330833
516,0.2921298031419779
517,0.2948369932534456
518,0.29759857504271825
519,0.3003567971777646
520,0.30298493127381404
521,0.3055356026112779
522,0.30831434160286353
523,0.3111501691624289
524,0.3140441711333444
525,0.316828448926638
526,0.3197280891380109
527,0.32269580711869916
528,0.3257196574220519
529,0.32888562161344287
530,0.3315392675599072
531,0.3344886577033279
532,0.33752905227454033
533,0.3408522434257087
534,0.34429511977206495
535,0.3476585964764198
536,0.3510070560172568
537,0.35434832108866876
538,0.35727337808320025
539,0.36016730212259107
540,0.3634483695432875
541,0.3668891449054604
542,0.37016714641295934
543,0.3735543852372245
544,0.3769040398934147
545,0.3802613868011249
546,0.38364161138613123
547,0.38702818113026405
548,0.3903721748267548
549,0.393862031666698
550,0.3971091676582524
551,0.4002762320814077
552,0.40340912503363224
553,0.4064605458148208
554,0.40972581761685295
555,0.41282702249698205
556,0.4159489824373206
557,0.41914725593196367
558,0.42240700097578054
559,0.4255947710235671
560,0.4287538853504829
561,0.43167666238132596
562,0.4344425618230973
563,0.43713692176214786
564,0.439862075975966
565,0.4426173361695882
566,0.445212243897496
567,0.44768080754022743
568,0.4501220628029479
569,0.4526075889046736
570,0.45501535756182454
571,0.45727455904345554
572,0.45940647497555825
573,0.46138998722231644
574,0.4633098641100223
575,0.46524723498699566
576,0.4672827378167784
577,0.4693262855598297
578,0.4713030122258048
579,0.47322017858123894
580,0.4750442077008887
581,0.47680718504286645
582,0.478396404843176
583,0.47993136650709534
584,0.48141107587251164
585,0.48315820699945394
586,0.48486556159777217
587,0.48645126429769403
588,0.48785943736139425
589,0.4892239362854893
590,0.4905410161540455
591,0.49179467949378575
592,0.49297901546377904
593,0.4942135397685839
594,0.49541595345077577
595,0.4965907164018811
596,0.49773369463233386
597,0.49882206991737027
598,0.49983586001159364
599,0.5007808636277756
600,0.5016990903630494
601,0.5026152088632087
602,0.5035650959731318
603,0.5044373075935672
604,0.5052644978605252
605,0.5060813672044742
606,0.5068640529467506
607,0.5076420540873585
608,0.5084123139047679
609,0.5091819813770316
610,0.5098900716520999
611,0.5105907590508132
612,0.5112913488702968
613,0.511972905985966
614,0.512605536572285
615,0.5132161063600141
616,0.5138334490703621
617,0.5144052798793984
618,0.5149808153522979
619,0.5155676738949228
620,0.5161418663344501
621,0.5166952405803084
622,0.5172556386540048
623,0.5178295333604186
624,0.5183565431394929
625,0.5188874129050693
626,0.5194181564401469
627,0.5199298886885547
628,0.5204360699828252
629,0.5209641049397389
630,0.5214904631993778
631,0.5220148292029537
632,0.5224829105500581
633,0.5229397930434573
634,0.5234302738825486
635,0.5239663385545923
636,0.5244728248053189
637,0.5249447243429672
638,0.5254282971205412
639,0.5259022114948316
640,0.5264080965484884
641,0.5269492485472931
642,0.5274483481872216
643,0.5279248397834091
644,0.5284252955329137
645,0.5289033802854184
646,0.5294456390358653
647,0.5300472569623648
648,0.5306385356174101
649,0.5312031571746332
650,0.5317873810046501
651,0.5323657563812493
652,0.5329290148896506
653,0.5334786941525503
654,0.5340617465634067
655,0.5346954844376799
656,0.5353364519048304
657,0.5358849724123065
658,0.5363964532210371
659,0.5369304974311903
660,0.5374769894809811
661,0.5380681373067971
662,0.5386898386165602
663,0.5393226571307888
664,0.5399419326501909
665,0.5405510226851127
666,0.5411577094310804
667,0.5417775236576584
668,0.5424208262851821
669,0.5430600190351307
670,0.5436909416037325
671,0.54435444822917
672,0.5450237224541287
673,0.5456841343517016
674,0.5463350279724971
675,0.5469877047349408
676,0.5476335015697519
677,0.5482895490610297
678,0.5490007015008785
679,0.5496989395523841
680,0.5503919941647103
681,0.5510915957197933
682,0.5517777634830949
683,0.5524978860811484
684,0.5532580196372765
685,0.55402588335428
686,0.5546946212326173
687,0.5554494912564918
688,0.5562240633305434
689,0.5569129459319445
690,0.5576373479611301
691,0.5584090388490772
692,0.5591830011910081
693,0.5599618231743317
694,0.5607106997355595
695,0.5614477517373913
696,0.5622145909240351
697,0.562992498955686
698,0.5637778691477299
699,0.5645659152636274
700,0.5653356236107769
701,0.5661348139876716
702,0.5669425191452192
703,0.5677252079000968
704,0.5685262583884239
705,0.5693285722552247
706,0.5701565055700137
707,0.5710379327590221
708,0.5718434511873798
709,0.572635978767442
710,0.5734576217180896
711,0.574254036196742
712,0.575096907310668
713,0.5759423658595154
714,0.5767295214527218
715,0.5775708500734701
716,0.5783340082111963
717,0.5788690982701504
718,0.5795855909929817
719,0.5803609832134539
720,0.5812264011152898
721,0.5821460779408897
722,0.5829980379984597
723,0.5837218236863218
724,0.5844206466757241
725,0.58521709042029
726,0.5860383993052198
727,0.5867967144126721
728,0.5875153152056616
729,0.5882908271598223
730,0.5890302357657452
731,0.5897584577832147
732,0.5905080196036196
733,0.5912772022799794
734,0.5920216894526509
735,0.592737901058603
736,0.5934238531545738
737,0.5940493564815184
738,0.5947444382189639
739,0.5955243695963992
740,0.5962466139248671
741,0.596917446822561
742,0.5975623878004428
743,0.5982037813724126
744,0.5988584389117159
745,0.5995078806380689
746,0.6001113680329385
747,0.600671152531483
748,0.6012458734958607
749,0.6018286599845031
750,0.6024048015745873
751,0.6029551852253394
752,0.6035176721029613
753,0.6040619937776901
754,0.6045694500108582
755,0.6050870234602991
756,0.6056371330514395
757,0.6062080785630473
758,0.6069701710073693
759,0.6072109068062344
760,0.607515975033034
761,0.6076900151940519
762,0.608028850485771
763,0.6084881668339671
764,0.6091554860024629
765,0.6096902970850674
766,0.6100440218453476
767,0.6106310666290927
768,0.6109899336234943
769,0.6113305731314963
770,0.6117042370021324
771,0.612046422535365
772,0.6123462087169362
773,0.6126546394442677
774,0.6129739264471898
775,0.6132698614557632
776,0.6135507258405647
777,0.6139228680578477
778,0.6142404143580215
779,0.6145271192161236
780,0.6148497152352826
781,0.6151565685615886
782,0.615445366685015
783,0.6157103270915826
784,0.6159457216146836
785,0.6162464060828268
786,0.6165147939804879
787,0.6166976117706191
788,0.6168789359447503
789,0.6170612130713504
790,0.6172464972141666
791,0.6174413310273696
792,0.6176859637411904
793,0.6179051121127602
794,0.6180931618628117
795,0.6182892685875842
796,0.6184235028195358
797,0.6186053022755008
798,0.6188469178362035
799,0.6189942624764131
800,0.6191575072678969
801,0.6193181060332992
802,0.6194425479009052
803,0.6195491904817936
804,0.6196822394003991
805,0.6198547241994242
806,0.6200467079967654
807,0.6201511772932345
808,0.6202421538797696
809,0.6203023243519216
810,0.6202251525241694
811,0.6201291710478527
812,0.6200063265898657
813,0.6198562230003052
814,0.619731768486871
815,0.6195806282666966
816,0.6194406392946364
817,0.6193754732535396
818,0.6193825045526383
819,0.6194733702304467
820,0.6195765834168626
821,0.6195738693322048
822,0.6194052033958198
823,0.6192604162161894
824,0.6192512554255117
825,0.61931681453976
826,0.6193260931109582
827,0.6192847947953001
828,0.6192160000693658
829,0.619079473262912
830,0.6190083278468698
831,0.6190202658421581
832,0.619065160348151
833,0.6190678501582306
834,0.6190358251374121
835,0.6190012037808861
836,0.6190025931243485
837,0.61897717448468
838,0.6189241953283413
839,0.6188617941683926
840,0.6188216781039924
841,0.6187648119629993
842,0.6186701023687632
843,0.6185573220803458
844,0.618554516340147
845,0.618528460296722
846,0.6184688638401775
847,0.6184180617847503
848,0.6183622823821199
849,0.618294035340133
850,0.6182148013971215
851,0.6181385094223263
852,0.6181071139205182
853,0.6180245472693762
854,0.6179074532621867
855,0.6177942539875639
856,0.6177509437925378
857,0.6176979472368636
858,0.6176958983187923
859,0.6176658794040574
860,0.6177237095056862
861,0.6176526951727834
862,0.6176168388220595
863,0.6176106611147439
864,0.6175845296860737
865,0.6175033508075534
866,0.6174366390407161
867,0.6174805243999003
868,0.6175612866985946
869,0.6176731765851395
870,0.6177113119557105
871,0.6177207724953493
872,0.6177426651250126
873,0.617796532159973
874,0.6178595742977908
875,0.6178550295670934
876,0.6178725121921418
877,0.6179970206771486
878,0.6180731939388938
879,0.6181666351514975
880,0.6181760411916318
881,0.6182344790465958
882,0.6182623696613841
883,0.6182499603724081
884,0.6182741162218006
885,0.6182852618654618
886,0.6183507562953415
887,0.6183534515144519
888,0.6182634067135045
889,0.6182110517148974
890,0.6182522120088123
891,0.6182688114802021
892,0.6181812797513685
893,0.6180998998433789
894,0.6181077592912418
895,0.618222040458752
896,0.6182146043838794
897,0.6182042227808053
898,0.618234485790756
899,0.6183176410368167
900,0.6184358883373904
901,0.6185631614550631
902,0.618625375511669
903,0.6186490777830578
904,0.6187259783035995
905,0.6187822367835992
906,0.6189315004968725
907,0.6191123808906319
908,0.6190580416028274
909,0.619176779144065
910,0.6193300130576811
911,0.619379293370139
912,0.6193905974641775
913,0.6196624905238767
914,0.6198764116806615
915,0.619795245881308
916,0.619837292056798
917,0.6199746359240614
918,0.6200503076402729
919,0.6199932933778689
920,0.6202683932600693
921,0.6203802271660492
922,0.6204162957269707
923,0.6206516968261193
924,0.6206065368492703
925,0.620726576698059
926,0.6210064447513864
927,0.6210809853450021
928,0.621093683567698
929,0.6209788279253032
930,0.6208548571758685
931,0.621058254768334
932,0.6211788741595115
933,0.6212136939607932
934,0.6212662546103208
935,0.6214644619652919
936,0.62181166365444
937,0.6220446206161745
938,0.6221106813819208
939,0.6223750622463463
940,0.6226554437590176
941,0.6227090144977738
942,0.6225844020472573
943,0.6230457406317947
944,0.623183752000765
945,0.6230412553026965
946,0.622940108155934
947,0.6230303855803552
948,0.6231178689136698
949,0.6232450204383801
950,0.623490564592297
951,0.6236813705283928
952,0.6239372679036088
953,0.6242699023348568
954,0.6245947005769615
955,0.6246676526564178
956,0.6247574620304354
957,0.6250308396432532
958,0.625476759998396
959,0.6256383381442806
960,0.6257376972232512
961,0.6259498548337896
962,0.6262993829461794
963,0.6263305137412342
964,0.6264518743051499
965,0.6268042211856271
966,0.6271888198072962
967,0.6271242931991907
968,0.6275744534724585
969,0.6283933913542127
970,0.6283219442542471
971,0.628529676697742
972,0.6286945966340146
973,0.6287633601188843
974,0.6292097994043119
975,0.6295593717839377
976,0.6298920879500902
977,0.6302691608066923
978,0.6303830343542278
979,0.6310815281717522
980,0.6315330158967407
981,0.6314592549303851
982,0.6317651763098912
983,0.6318586635781972
984,0.6321899032120314
985,0.6324410694171535
986,0.6331247107325881
987,0.633305348244678
988,0.6332097588279495
989,0.63364849155605
990,0.6341291522339264
991,0.634107000959421
992,0.6344337393128666
993,0.6346010330663269
994,0.6352081021358403
995,0.6353730830130434
996,0.6357217113317079
997,0.6363106668612759
998,0.6362539564286561
999,0.6360703717515171
1000,0.6361701824529836
1001,0.6473079333930001
1002,0.6477331359453109
1003,0.6480267634770132
1004,0.6481879092026336
1005,0.6483105753774305
1006,0.6488944709616151
1007,0.6492647839270425
1008,0.6495174169112429
1009,0.6499312129733489
1010,0.6503507698592677
1011,0.6506233656592213
1012,0.6509159851016943
1013,0.651159358932088
1014,0.6514824292853225
1015,0.65180429547664
1016,0.6520979256097975
1017,0.6524245376477835
1018,0.6527410503882419
1019,0.6531272474464325
1020,0.6533927361261075
1021,0.6536059986142018
1022,0.6540556734094192
1023,0.6544769257866815
1024,0.6547033665940409
1025,0.6551604449442213
1026,0.6555072832982245
1027,0.6556567424341351
1028,0.6560131021814589
1029,0.6563357550119558
1030,0.6566369221597688
1031,0.656995750708971
1032,0.6574374644144215
1033,0.6577684374530471
1034,0.6581060468612274
1035,0.6584330843128429
1036,0.6586773355345407
1037,0.6590832691285623
1038,0.6595096585360248
1039,0.659802173335005
1040,0.6600330389548418
1041,0.6602628087871029
1042,0.6604668759469379
1043,0.6607661014753291
1044,0.661139120075906
1045,0.6616368010602842
1046,0.6619219725511675
1047,0.6622881869999058
1048,0.6627343230240503
1049,0.6630594282512995
1050,0.6633835990618367
1051,0.6637360654657414
1052,0.6640647820104372
1053,0.6643249074917165
1054,0.6647733174554709
1055,0.6650094712396436
1056,0.6652084578628628
1057,0.6656304721904983
1058,0.665908739571817
1059,0.6663565003907063
1060,0.6666549537316777
1061,0.6670044596097259
1062,0.6673228918561808
1063,0.6676443168755757
1064,0.6678947452802251
1065,0.6682422048232377
1066,0.6686398989366391
1067,0.6690985515709607
1068,0.6696150660730481
1069,0.6699366622510357
1070,0.6701510823281918
1071,0.6703544101599936
1072,0.6705480351557855
1073,0.670875674609473
1074,0.671297187075235
1075,0.6717474941400294
1076,0.6721665200796372
1077,0.6725375082858177
1078,0.672865760444868
1079,0.6731662365362301
1080,0.6735714144818327
1081,0.6739713168442849
1082,0.6743346587194875
1083,0.6747053269120366
1084,0.6750257697915377
1085,0.6754828670964225
1086,0.6759945038826991
1087,0.6764498126110453
1088,0.6769394050554021
1089,0.6772056761569908
1090,0.6773416067452274
1091,0.6776979858036243
1092,0.6780285158532435
1093,0.6783292117958958
1094,0.6787051614704095
1095,0.6791889527403655
1096,0.6795456297028382
1097,0.6799284018478634
1098,0.6804535412824497
1099,0.6809976384962209
1100,0.6814814724431711
1101,0.6818998830154468
1102,0.6821134563442633
1103,0.6823691932216059
1104,0.6826119561824179
1105,0.6827636002458182
1106,0.683116087228892
1107,0.6835845989510623
1108,0.6841820156900131
1109,0.6846733680818039
1110,0.6851801828315436
1111,0.6856264647302206
1112,0.6858008302635169
1113,0.6858975371799747
1114,0.6859508382367054
1115,0.6861958048685044
1116,0.6862872184271107
1117,0.6863412643258122
1118,0.6866455262948081
1119,0.6868595444847141
1120,0.6875229996273715
1121,0.6883975904352638
1122,0.689245085368259
1123,0.6898243272782734
1124,0.6900333515172353
1125,0.6904267803629238
1126,0.6909735469629793
1127,0.6913461373059975
1128,0.6918255578110205
1129,0.6924703973484744
1130,0.6928747850001667
1131,0.6932411000824169
1132,0.6937049478615818
1133,0.6939275559969593
1134,0.6944309094933702
1135,0.6949787685552804
1136,0.6951978273471182
1137,0.695492517843489
1138,0.6958173258759764
1139,0.6959477801043862
1140,0.6960715482239254
1141,0.6961890058115486
1142,0.6965360978079435
1143,0.6970680220086439
1144,0.6974697075177618
1145,0.6978306995911358
1146,0.6982355448355659
1147,0.6985368384458523
1148,0.698665528035053
1149,0.6990634027079675
1150,0.6995896278076729
1151,0.7001840774668493
1152,0.7008643652260924
1153,0.7012797438279165
1154,0.7017337615379741
1155,0.7021446117136355
1156,0.7023956907749117
1157,0.7025624922836023
1158,0.7028357472594968
1159,0.7030906415119282
1160,0.7033146839656207
1161,0.7035616525179715
1162,0.7038253840384265
1163,0.7039906786614605
1164,0.704305695108237
1165,0.7048127686876837
1166,0.7051525024356808
1167,0.7054683316219448
1168,0.705790339376486
1169,0.7061778068023754
1170,0.7065620538475418
1171,0.7069784083321566
1172,0.707419848230807
1173,0.7077735229651676
1174,0.7081264829348038
1175,0.7084662835074919
1176,0.7087676493843686
1177,0.7090965183839237
1178,0.7094353915681341
1179,0.7097667554105521
1180,0.7100900180935864
1181,0.7104370591186738
1182,0.7108013809442302
1183,0.7111545472354761
1184,0.7115655442993871
1185,0.7118726597947194
1186,0.7120368539005907
1187,0.7123473411572928
1188,0.71269870976828
1189,0.7130009566947426
1190,0.7134124176232424
1191,0.713807771861934
1192,0.7140982813838748
1193,0.7143575400278156
1194,0.7145751627196186
1195,0.7147117803701131
1196,0.7149189628743111
1197,0.7151478140670459
1198,0.7153798576971206
1199,0.7156792182400225
1200,0.7159173028159846
1201,0.7161082378466762
1202,0.7163465942751664
1203,0.7165796525815744
1204,0.7168339375937407
