Wavelength,0
350,0.0455006493035037
351,0.046101391556700476
352,0.04632249869547851
353,0.04638918447435798
354,0.0471689991607305
355,0.04748225240846745
356,0.047782343151355114
357,0.04806907779821323
358,0.048262737615854256
359,0.04847930907624443
360,0.04880893380294509
361,0.04926073449607453
362,0.049637597684482344
363,0.04978464027603216
364,0.050149171419474906
365,0.050378977910889314
366,0.050552349687426425
367,0.050860108293215175
368,0.05119886829730919
369,0.05161430904111103
370,0.051947773691580414
371,0.05227884173466134
372,0.052647530159714406
373,0.05293443977584041
374,0.053374118829827
375,0.05382494818139917
376,0.05423392394865154
377,0.05471558396827879
378,0.05507251359643721
379,0.05546697437758314
380,0.05591321917448844
381,0.05627122387288884
382,0.05686891068226321
383,0.05739733550123534
384,0.05777250583206738
385,0.058139294609841165
386,0.05868087960435651
387,0.05918366015928481
388,0.059591755399582017
389,0.060052118303685474
390,0.06043086342945861
391,0.060726114193123064
392,0.06109691373186528
393,0.06149986409162554
394,0.061844241636090896
395,0.06231165967322115
396,0.06271093197700872
397,0.06298635842304617
398,0.06326477959154168
399,0.06351440201515207
400,0.06378289713871288
401,0.06405122059847684
402,0.06430893994471362
403,0.06450070424128887
404,0.06474129924760823
405,0.06499032182079423
406,0.0652477109649281
407,0.06554622051074827
408,0.06584953832603413
409,0.06613993159013694
410,0.06639445710776506
411,0.06662522357896325
412,0.06685377886894431
413,0.06715141556074655
414,0.06745957436034142
415,0.0677071648394225
416,0.0679566455495025
417,0.0681704481157503
418,0.06840549863106732
419,0.0686831193594849
420,0.06892488198235402
421,0.06917056002641463
422,0.06938771573963104
423,0.0695871112898638
424,0.06982649629959983
425,0.07006882238799805
426,0.07028583606475064
427,0.07052746004301892
428,0.07079978294287206
429,0.07102060328537604
430,0.0712520938968137
431,0.07146913406974985
432,0.07162219567473438
433,0.0718470008679507
434,0.07203252346809208
435,0.07221216370605028
436,0.07246350956420726
437,0.07269142624581018
438,0.07282727188173344
439,0.07296770754961296
440,0.07311521580240599
441,0.07329456920172359
442,0.07346294491470198
443,0.0736253330809237
444,0.07376868400515366
445,0.07393902939016973
446,0.07414581234973747
447,0.0743195285808664
448,0.07453026190278823
449,0.0747444517502307
450,0.07494613330637404
451,0.07516566051285109
452,0.07539127563471473
453,0.0756310847420675
454,0.07585796405537615
455,0.0761104261824767
456,0.0763562537455649
457,0.0765752934045088
458,0.07678557346866091
459,0.07700153484911751
460,0.07721618710884884
461,0.07740427978380618
462,0.07760612260006419
463,0.0778022711042827
464,0.07799565800146349
465,0.078214366056419
466,0.07837346124152549
467,0.07852524374434289
468,0.07868786547446742
469,0.07884584518500079
470,0.07902015188396991
471,0.07917298511453473
472,0.07932024289133933
473,0.07949342203164622
474,0.07964236764169078
475,0.07979009309382729
476,0.07996291465541183
477,0.08011294406786697
478,0.08025558642732003
479,0.08040122028324145
480,0.08055013494486482
481,0.08070851813053305
482,0.08086661957313424
483,0.08104464845487734
484,0.0812159616944435
485,0.0813788408822563
486,0.08155413380024695
487,0.08172084579469446
488,0.08188220156931801
489,0.08205489687325211
490,0.08222179427485449
491,0.08237151846735596
492,0.08251157526131597
493,0.0826433955650294
494,0.08278962816064564
495,0.08294990740505356
496,0.08312893508338627
497,0.08328629125574645
498,0.0834216540645847
499,0.08357644067157355
500,0.08372563540178332
501,0.08389688831555031
502,0.08405329166449829
503,0.0842065605314305
504,0.08434485187360037
505,0.08452142798639004
506,0.08469716987480722
507,0.08483776010954706
508,0.0849724555461519
509,0.08511208820378258
510,0.08526990266636363
511,0.08542457933881459
512,0.08558025621620684
513,0.08573322236658787
514,0.08588673267123814
515,0.08604724690363358
516,0.08621628423638597
517,0.08638668396207082
518,0.08653990344026449
519,0.08668439764277852
520,0.08683285489324383
521,0.0869634367522185
522,0.0871071754356299
523,0.08724986793819847
524,0.0873898055875433
525,0.08753729894666251
526,0.08770037297607791
527,0.08791590374216196
528,0.08806054852654174
529,0.08824476364056935
530,0.08840137948825065
531,0.08856266516076822
532,0.08868515824103511
533,0.08883032288333564
534,0.08898193234384884
535,0.08912279448969962
536,0.08925282846098136
537,0.0893882652073049
538,0.08952795269007416
539,0.08965665158907965
540,0.08979767327278479
541,0.08991370046789646
542,0.0900256743380744
543,0.09014524125620521
544,0.09026866076806173
545,0.090396855006326
546,0.09053710079105068
547,0.09065356848627026
548,0.09077239539537432
549,0.09088902201960072
550,0.09099875798957839
551,0.09112674267883845
552,0.09124090860472026
553,0.09136390629855742
554,0.09148038276696463
555,0.09160216163830495
556,0.09172387597211402
557,0.09184292766444095
558,0.09196361786570287
559,0.09206975874575793
560,0.09216714622689905
561,0.09227097700408629
562,0.09236110112130408
563,0.09245565126135949
564,0.09255512412718225
565,0.09263756042408716
566,0.0927325541588318
567,0.09284232294713848
568,0.09293975582257516
569,0.09303512935660127
570,0.09313658607277708
571,0.09321240447725736
572,0.09328605471717834
573,0.0933351156231907
574,0.09339493717633338
575,0.09347310594773175
576,0.09353971574816103
577,0.09362577842496966
578,0.09371049021239533
579,0.09378562020844677
580,0.09385244465392968
581,0.09393244196654546
582,0.09402235646925095
583,0.09411965442529056
584,0.09422955570560426
585,0.09433559626494101
586,0.09443158058967906
587,0.09452136380722662
588,0.0946068311545418
589,0.09467899430323748
590,0.09475986441478361
591,0.0948332773972751
592,0.09491575215368564
593,0.09500655447883677
594,0.09507421336475971
595,0.09514880373299353
596,0.09523706194394897
597,0.09534090392563659
598,0.09541714850971394
599,0.09551676544688309
600,0.09561575701129757
601,0.0956937164263276
602,0.09577369028226566
603,0.09585554998489576
604,0.09593705223402804
605,0.09600983698700077
606,0.09609746365273766
607,0.09619432286987369
608,0.09629995250582227
609,0.09639662740290121
610,0.0964940922158462
611,0.09659501692611722
612,0.09669775041047216
613,0.0967780420150463
614,0.09686922715523699
615,0.09697118056943005
616,0.09706728931793644
617,0.09716298034485041
618,0.09725402810099704
619,0.0973419485383995
620,0.09743624350271174
621,0.09753167451222476
622,0.09763369805528939
623,0.09774809436688109
624,0.09785457118364878
625,0.09796187099925688
626,0.09806328988420587
627,0.09816967699128976
628,0.09827243833594183
629,0.09837911120157643
630,0.09850309122345574
631,0.09861266452178215
632,0.09870465380231616
633,0.09880776796434698
634,0.09893453371516467
635,0.09902173171520823
636,0.09911140455772309
637,0.09922902303958436
638,0.09937001564716663
639,0.09947941602789458
640,0.09956922995677134
641,0.09967295413423269
642,0.09980405475186971
643,0.09993030658286962
644,0.1000356183720342
645,0.10012913622837934
646,0.10027275842480982
647,0.10038701047682194
648,0.10050899151878664
649,0.10062753228272414
650,0.10075800408847985
651,0.10088197119443967
652,0.10098936643436929
653,0.10112548446973695
654,0.10125784885724219
655,0.10139833074120874
656,0.10153897209642239
657,0.1016709584414165
658,0.10177673281210896
659,0.10186936502923384
660,0.10195885312410433
661,0.10207021860592543
662,0.10219859618370529
663,0.10233924191204688
664,0.10245081770258258
665,0.10256381663352586
666,0.1026785344841605
667,0.10279992793875509
668,0.10291637852870848
669,0.1030450032985063
670,0.10317507406564447
671,0.10328630387121887
672,0.10341161324030068
673,0.103543579654892
674,0.10366986430911246
675,0.10379270612057453
676,0.10392561128793074
677,0.10406316892168617
678,0.1042004685065838
679,0.1043429027048847
680,0.10448334115020527
681,0.1046199698470512
682,0.10477881221505546
683,0.10493413497700235
684,0.10508990626027352
685,0.10525348252601513
686,0.10542461761205392
687,0.10558798529615351
688,0.1057536965070063
689,0.10593263056511648
690,0.10611703835103138
691,0.10626780466367818
692,0.1064010137314631
693,0.1065211698503098
694,0.10668315375217025
695,0.10697298917681533
696,0.10717470431327827
697,0.10737201669292432
698,0.10754920435139029
699,0.10771389948293661
700,0.10788843854649391
701,0.10804686744079259
702,0.10824894077377517
703,0.10844463860887067
704,0.10862761036513566
705,0.1088899149319614
706,0.10909897313848554
707,0.1093802574664707
708,0.10955146311792867
709,0.10974226079022542
710,0.10989579654737021
711,0.11007055418963535
712,0.11023174050441703
713,0.11039646349472343
714,0.11057143134975073
715,0.11074598027963703
716,0.11093401190374928
717,0.11114135344802231
718,0.11135187208488369
719,0.11156370154151139
720,0.11176445666871918
721,0.11201158946492545
722,0.11213822054947747
723,0.11227543963360187
724,0.11253480463084382
725,0.11270109259407741
726,0.1128579863904652
727,0.11306549687004641
728,0.1132991678622104
729,0.11345959541212458
730,0.11360501422832589
731,0.11377910436032687
732,0.11396339029503033
733,0.11412707063878097
734,0.11428592032062247
735,0.1144408723061798
736,0.11460652045560223
737,0.11477153634441942
738,0.1149349258365111
739,0.11510462451820522
740,0.11530258239758988
741,0.11550443399326346
742,0.11567630455454683
743,0.11586182223421723
744,0.11600838036994751
745,0.1161831424964447
746,0.11636786436201285
747,0.11652941447551082
748,0.11667402782783419
749,0.11684341673602835
750,0.11703126355953725
751,0.11720879242742772
752,0.11739358502869102
753,0.11754924495060928
754,0.11770724714756586
755,0.11788844110953162
756,0.1180441477582842
757,0.11824211993322792
758,0.11845409882076915
759,0.11869844023278522
760,0.11905564022349119
761,0.1193538570995454
762,0.11949098246592942
763,0.11971179932006179
764,0.11980815590140487
765,0.11989031814651357
766,0.11999068870494023
767,0.12005262753626683
768,0.1201596241944371
769,0.12031681486150123
770,0.12049056035299543
771,0.1206617481124965
772,0.12083527023598199
773,0.1209986463931116
774,0.12118738512094962
775,0.12136323632943594
776,0.1215347600715456
777,0.1216964157663444
778,0.1218529422970366
779,0.1220362022647331
780,0.12221231241647629
781,0.12239175774547711
782,0.12257082771459207
783,0.12274667479777414
784,0.12290723548210114
785,0.12306877262010826
786,0.12324752974191963
787,0.12341405316911375
788,0.12356888052343246
789,0.12374537176150499
790,0.12391340990826089
791,0.12409187799629193
792,0.12426577071430014
793,0.12443399737138228
794,0.12461728888043001
795,0.12479481026574832
796,0.12493510658086018
797,0.12509949077642568
798,0.12526727406379473
799,0.12543088444999995
800,0.12560748395799268
801,0.12575221943115997
802,0.12591382793781547
803,0.1260936765738414
804,0.12626419357590152
805,0.1264562441954034
806,0.1266273785455089
807,0.12677222337680788
808,0.12692997869976919
809,0.12708829282234985
810,0.12725306482817683
811,0.1273914092302153
812,0.12756668079980493
813,0.12771281580613655
814,0.12787442115985714
815,0.12806041035250204
816,0.12824200611290604
817,0.1284293728352937
818,0.1286098011478657
819,0.12874069882317468
820,0.1288772084805649
821,0.12902676006437988
822,0.12918456620341306
823,0.1293158689865886
824,0.12945525353377907
825,0.12958653322689087
826,0.12969776130524663
827,0.12984696918273014
828,0.13000912852711077
829,0.13017072965566534
830,0.13031528291499422
831,0.13045799703440727
832,0.1305871654057839
833,0.1307044098062784
834,0.13086228165716557
835,0.13101185490683767
836,0.13116656465722343
837,0.1313124228476668
838,0.13142964284869424
839,0.13153048408247447
840,0.13166256326579037
841,0.13180153977822362
842,0.13192918028458178
843,0.13206016387878
844,0.13222057050959182
845,0.1323723302880054
846,0.13249039639529475
847,0.13260233010432343
848,0.1327442006588459
849,0.1328985043815203
850,0.13302933803057515
851,0.13318595764875377
852,0.1333301957886922
853,0.1334285791606537
854,0.13354858373927686
855,0.1336771349124442
856,0.13381024753039017
857,0.13393302142644803
858,0.1340298746104529
859,0.13414998455498364
860,0.13430912516548546
861,0.13440506256882417
862,0.13453370731953063
863,0.1346603251771576
864,0.13480653157669523
865,0.1348860215891913
866,0.1350246364013824
867,0.13520485910585253
868,0.13532383259391834
869,0.13542627304538796
870,0.13552466112077938
871,0.13565289697615238
872,0.13579688498030884
873,0.13592634506255155
874,0.13603573092723245
875,0.13613957906916518
876,0.13627148284923365
877,0.13637801300154176
878,0.13649377686363146
879,0.1366202755331226
880,0.1367156775305039
881,0.1368444568473569
882,0.13696694966114037
883,0.13707239688344489
884,0.1372146723491342
885,0.13732875049643262
886,0.13744454919292845
887,0.13757862410045973
888,0.1377211807128491
889,0.13781678982734402
890,0.13789607245481447
891,0.13800879130766985
892,0.1381105939224055
893,0.13822719620594712
894,0.1384031500435149
895,0.13857458833095113
896,0.13877949089076805
897,0.1389518303113052
898,0.1390603963605182
899,0.139257302786491
900,0.13938237097666958
901,0.13949228683252812
902,0.13960531386306296
903,0.13970331516949955
904,0.13987103845364063
905,0.14001798328304546
906,0.1401192903839935
907,0.1401935541186093
908,0.14039544845050878
909,0.1405394987497816
910,0.14066068830074258
911,0.1408815803556399
912,0.1409844238774998
913,0.1410874108566224
914,0.14119915959365467
915,0.14127870421511723
916,0.14137928585420687
917,0.14157037351985657
918,0.14171937497711684
919,0.14177433823480695
920,0.14192873416779256
921,0.14208250547588747
922,0.14214856614931315
923,0.14222647903400687
924,0.1423111293945562
925,0.1424642648762796
926,0.14257520596486534
927,0.14252863035072788
928,0.142748463950367
929,0.1430304630313243
930,0.14324451918122175
931,0.14321898599532978
932,0.14351437826468091
933,0.14361663101090358
934,0.1438250074866487
935,0.14411135657236193
936,0.14416968096045785
937,0.14417531354568186
938,0.1442677948936827
939,0.14445093134918036
940,0.14467111338639327
941,0.14466065869498684
942,0.14466161991846455
943,0.14469397004133513
944,0.14490188591265304
945,0.1451717009799387
946,0.14540959719367136
947,0.14545200382460488
948,0.14557171657788406
949,0.14549648190985717
950,0.14551300641596032
951,0.14564928324455956
952,0.1458642112986886
953,0.14607756936648203
954,0.1462400651992059
955,0.14625450602090834
956,0.1464080132944352
957,0.1464977501323233
958,0.1465637427035777
959,0.1467428870792222
960,0.14691923127316048
961,0.1470202057706036
962,0.1473434594039798
963,0.14727715275834857
964,0.14747188554654728
965,0.14771608025344854
966,0.1478134352528328
967,0.14793131791166253
968,0.1480859676923914
969,0.1482395151385184
970,0.14830285406310378
971,0.14843638959812272
972,0.1486174368706955
973,0.14880008648440968
974,0.1489843729216514
975,0.14912811899651796
976,0.14919228972580506
977,0.14924658573562932
978,0.1494235004725654
979,0.14965273210796098
980,0.14982666764869768
981,0.14984893595464172
982,0.14977829841077772
983,0.15016382839561132
984,0.150300756561925
985,0.15046567358073532
986,0.15062465849515572
987,0.15072607488413692
988,0.15073424587154471
989,0.15086079108833733
990,0.1509756984525008
991,0.1511154616069492
992,0.15105687057742553
993,0.15120536589126177
994,0.15141357905327912
995,0.15151941222345405
996,0.15176650626396554
997,0.15172037242916375
998,0.15180845831018808
999,0.15199180853388033
1000,0.1520682636511024
1001,0.15240493381391906
1002,0.15253566655123027
1003,0.15268955083854485
1004,0.1528470199478575
1005,0.15301823921395327
1006,0.15310306397771972
1007,0.1532286888254244
1008,0.15335810056397065
1009,0.15343158922705502
1010,0.1535602833593767
1011,0.1536874042527786
1012,0.15387224387722698
1013,0.15396121773307053
1014,0.1540550447970508
1015,0.1541481135658348
1016,0.15428035378298655
1017,0.15440395705621301
1018,0.15451327661859796
1019,0.15465354354457025
1020,0.15474633654330644
1021,0.154870164103007
1022,0.1549724026321745
1023,0.15502293899423003
1024,0.15513530036031792
1025,0.1552589057480484
1026,0.15537808653660712
1027,0.15551741568718863
1028,0.15566422322177703
1029,0.155737351331327
1030,0.15580382225453165
1031,0.1558919438710315
1032,0.15602602264578325
1033,0.15613325143549273
1034,0.15618508247004798
1035,0.15629090664394135
1036,0.1564342284677855
1037,0.1565323329526046
1038,0.1566469446641424
1039,0.1567216674496688
1040,0.15683530138474464
1041,0.1569894362401741
1042,0.15709880185430714
1043,0.15719642813834206
1044,0.1573309192824453
1045,0.15748977200184125
1046,0.15751605451297565
1047,0.1575767828494265
1048,0.15772495279407656
1049,0.15785583580221324
1050,0.15798186321608923
1051,0.15807464575678765
1052,0.15814058851371243
1053,0.15823374413864086
1054,0.1583419289899647
1055,0.1584569659680421
1056,0.15854653104690802
1057,0.15865497516486413
1058,0.1587973091666594
1059,0.15891330607636212
1060,0.15900212146563364
1061,0.1590679859098228
1062,0.15914239803892377
1063,0.1592440072555335
1064,0.15936389776229812
1065,0.15943729467915918
1066,0.15953918240612705
1067,0.15959893418041832
1068,0.1597175047343645
1069,0.15983369465624236
1070,0.1599019371117133
1071,0.16000839497455274
1072,0.16009407206321416
1073,0.1601744084075104
1074,0.16023779498627772
1075,0.16037155367485334
1076,0.16048434035601633
1077,0.16057717638509905
1078,0.1607028281320736
1079,0.1608185242503412
1080,0.16090536250909604
1081,0.16104379118042536
1082,0.16114121610066642
1083,0.16121270170808366
1084,0.16127781753225684
1085,0.1613665027952252
1086,0.16143915231726075
1087,0.16153936685802972
1088,0.16163180661145876
1089,0.16176969085756904
1090,0.16190090361417178
1091,0.16200775054339167
1092,0.16210450779918878
1093,0.16218513320508138
1094,0.1622747113459162
1095,0.16237401989343753
1096,0.1624386208539481
1097,0.16253983984822784
1098,0.16265384210184308
1099,0.16281134975265552
1100,0.16293652372791356
1101,0.16300091615619489
1102,0.16309109383827458
1103,0.16318307224283252
1104,0.16326480378284394
1105,0.16338059710842157
1106,0.1635053433069154
1107,0.1636148910474451
1108,0.16375516166513127
1109,0.16380368962165365
1110,0.16387873006568127
1111,0.16393470345305608
1112,0.16403124762033586
1113,0.16411435303902294
1114,0.16419433303444092
1115,0.16431763434952318
1116,0.16446362901946887
1117,0.16455457786577654
1118,0.16461366426741725
1119,0.16473715174517642
1120,0.16484325455242937
1121,0.16500647587052436
1122,0.16515922872517946
1123,0.16531809672798697
1124,0.16538316255822888
1125,0.16564165973332495
1126,0.16584669020274595
1127,0.16591302062323465
1128,0.1659789250422301
1129,0.16608210871572943
1130,0.16619261180048875
1131,0.1662272042331568
1132,0.16620167401601219
1133,0.16628814648273393
1134,0.16642892141191454
1135,0.16653814956065632
1136,0.166695364268108
1137,0.1667894429195782
1138,0.16687014372047973
1139,0.16693706396139327
1140,0.16699725519882988
1141,0.16708739423261856
1142,0.1671622343643564
1143,0.16729823883505968
1144,0.1674295159306028
1145,0.16754031202890773
1146,0.1676189056534534
1147,0.1677021213947935
1148,0.16776982686723746
1149,0.16788122902853791
1150,0.16796685516158874
1151,0.16803104299796318
1152,0.16808934833828587
1153,0.168142017563632
1154,0.1682558575546877
1155,0.1683825165481196
1156,0.1685089768963703
1157,0.16865659265946
1158,0.16873852304859496
1159,0.1688237211329126
1160,0.16891881333907757
1161,0.16898836991837907
1162,0.16906664241203806
1163,0.1691583657824483
1164,0.16926059806915433
1165,0.1693635693902955
1166,0.1694421349917022
1167,0.1695346467379777
1168,0.1696311873897275
1169,0.1697284728825578
1170,0.16983045924071333
1171,0.16992042359077525
1172,0.1700416939398958
1173,0.17013497747627887
1174,0.1702414354657304
1175,0.17035939585482374
1176,0.1704620243776309
1177,0.17058016940460796
1178,0.17068959417441182
1179,0.17080527244225802
1180,0.17089044751102986
1181,0.17098146287399885
