Wavelength,0
350,0.040656399364101724
351,0.04107257595058918
352,0.041302055587438324
353,0.04135401813595942
354,0.04211139257280758
355,0.04247498271555111
356,0.04274261729162576
357,0.042946678560471935
358,0.04298688129966477
359,0.043204885969957085
360,0.043626644168125575
361,0.04401392495544934
362,0.04433035313727211
363,0.04451386738219516
364,0.04487579748281603
365,0.04518107459502635
366,0.04531804962178749
367,0.04557909918430464
368,0.0459189535078679
369,0.04627083444831531
370,0.04656556928922666
371,0.046836658550999985
372,0.04715472582388005
373,0.04752146826241578
374,0.04796122160092205
375,0.0483744442736445
376,0.048748054701049245
377,0.04910097904535859
378,0.04937591922085843
379,0.04977417541557698
380,0.050193868731133094
381,0.0504587099540236
382,0.05088417606044936
383,0.05125008561041321
384,0.05164129183131959
385,0.05196426069533637
386,0.0523219822243486
387,0.05274756987753966
388,0.05310811708038525
389,0.05351557727568479
390,0.0538985960497964
391,0.05415123902966901
392,0.05436616172526546
393,0.05466407396873339
394,0.05510544622398278
395,0.0554198235880254
396,0.05572848184458747
397,0.05605218486345859
398,0.05627607596923871
399,0.056489711800931056
400,0.05674794583236729
401,0.05700410882578578
402,0.057211263877224
403,0.05741929480274945
404,0.05763721023963686
405,0.05777667983387985
406,0.058000643062065385
407,0.05823342284768125
408,0.058431354753998285
409,0.058718469650909544
410,0.05889846018314365
411,0.05904319557617116
412,0.0592488678079416
413,0.05946251981154535
414,0.059692084060207616
415,0.05985657429619633
416,0.06004751340754483
417,0.06023942175352853
418,0.060425747519535694
419,0.06067028112933432
420,0.06085797060968985
421,0.06100341065125786
422,0.06116237062564407
423,0.06130988346741888
424,0.06148612237488208
425,0.06165996611494888
426,0.06182864264819915
427,0.062010362821192766
428,0.062197048723331885
429,0.062402187489914204
430,0.06259968019779075
431,0.06276897109448898
432,0.06295772023039956
433,0.06312284668662874
434,0.06325743095465064
435,0.06342199318194344
436,0.06358853209693449
437,0.0637378668002972
438,0.0638519521490789
439,0.06395704992041759
440,0.06407142340247643
441,0.06421379091331227
442,0.06435143246713472
443,0.06448978762482055
444,0.06462204898925619
445,0.06476101949514104
446,0.06490462185110966
447,0.06505428551451647
448,0.06522470025600148
449,0.06540208025299979
450,0.0655853033721504
451,0.06576227625787495
452,0.06593891943022451
453,0.06612872497934894
454,0.06631980314254349
455,0.06654027941977736
456,0.06674230880739854
457,0.06690936853108861
458,0.06708489556248223
459,0.06726254582483573
460,0.06743981982877473
461,0.06759450787033834
462,0.0677540192132319
463,0.06792244637375662
464,0.06806768328823035
465,0.06821319532046557
466,0.0683799612224534
467,0.0685174774814481
468,0.06864205644735341
469,0.0687767261527152
470,0.06889716476872756
471,0.06901290057730108
472,0.06914177864114268
473,0.06927596653267082
474,0.06939526065891766
475,0.06951170243163825
476,0.06964321641775813
477,0.069757939011316
478,0.06987103007717503
479,0.06999099844643977
480,0.07011425236324148
481,0.0702358041603837
482,0.07034662919166934
483,0.0704756621741902
484,0.07061645031026542
485,0.0707515843273488
486,0.07088473111840052
487,0.07100526582712277
488,0.07115398029885378
489,0.07127941561669404
490,0.07140300793288482
491,0.07152817206241197
492,0.07164469560036302
493,0.07174921527549066
494,0.07186578942045534
495,0.07199859175720971
496,0.07213246784428183
497,0.07226902761038088
498,0.07238421192918973
499,0.07249385808542674
500,0.07260912580456551
501,0.07273655113272637
502,0.0728604048184821
503,0.07300373443285496
504,0.07313420263286424
505,0.07326370643880106
506,0.0733905353005013
507,0.07349127598810634
508,0.07360399268796392
509,0.07372978084248288
510,0.07386815232293407
511,0.07399806389960419
512,0.07412088922288021
513,0.07423681956255565
514,0.07436297692106916
515,0.0744864848821731
516,0.07461284432818618
517,0.07474492505636318
518,0.07487329397250306
519,0.07500501172446278
520,0.07514365731427908
521,0.07525791308314073
522,0.07535752540613092
523,0.07547616919892974
524,0.07563013042536286
525,0.07575166512065262
526,0.07588322229937552
527,0.07602474918371299
528,0.0761463378077809
529,0.07627379115302828
530,0.07641916985451688
531,0.07655737761498174
532,0.07666796820884472
533,0.07679481599075394
534,0.07692510480077663
535,0.07704618460261661
536,0.07716214580466277
537,0.07729166098358875
538,0.07739565591114453
539,0.07750679058971241
540,0.07762215390330623
541,0.07773531532105943
542,0.07782915534232387
543,0.07792028025984588
544,0.0780295066263109
545,0.07812481212931434
546,0.07820957777338482
547,0.07830910553824391
548,0.07841034354495957
549,0.07850977775186394
550,0.07861537415126249
551,0.07871960528504074
552,0.07882338740912134
553,0.07893630014756381
554,0.07903716111521158
555,0.0791263058417849
556,0.0792171227963181
557,0.07930567026413135
558,0.07938427722907973
559,0.07946198858643183
560,0.07954019648873634
561,0.07961665404975325
562,0.0796945132837957
563,0.07977356549896299
564,0.07985550342517253
565,0.07993413334989719
566,0.08000221084187668
567,0.08004401045354234
568,0.08009445630736446
569,0.08015892648736384
570,0.08024346118262378
571,0.08033466768608505
572,0.0804138798116362
573,0.08044730058513773
574,0.08047303619708904
575,0.08051436742478624
576,0.08055508226019198
577,0.08059987048406997
578,0.0806739266893782
579,0.08074333309224455
580,0.08081555841620938
581,0.0808906505440949
582,0.08096207006750106
583,0.08102719680803136
584,0.08111390143651609
585,0.08121129351167151
586,0.08128808652513976
587,0.08133698189603883
588,0.08140201432591028
589,0.08148546742318905
590,0.08152912233246382
591,0.08157830200798524
592,0.08161493009257034
593,0.08165596725235057
594,0.08170762597731346
595,0.08176143719443069
596,0.08182257318838623
597,0.08188102216549584
598,0.08192493744352025
599,0.08198112575839189
600,0.08205205182574232
601,0.08212253084753432
602,0.08219145988102053
603,0.08224963402716161
604,0.0823072968858351
605,0.08235767733280408
606,0.08241255344924947
607,0.0824686728264914
608,0.08251593588382031
609,0.08257703571232611
610,0.08263251680680939
611,0.08268386946926352
612,0.08273976481501465
613,0.08281345064366541
614,0.08287968046035846
615,0.08293797869387187
616,0.08300063950716585
617,0.08306639845187838
618,0.0831289402912098
619,0.08318819125508503
620,0.08325256837360348
621,0.08332560137162437
622,0.08339522208193184
623,0.08345783340627165
624,0.08352430091010668
625,0.08360188722751832
626,0.08367563127646316
627,0.0837277094961611
628,0.08380379085000882
629,0.08388571408922946
630,0.08396377252186862
631,0.08401797776039246
632,0.08410149033031283
633,0.08419659496537718
634,0.08427029158331403
635,0.08433868335446328
636,0.08440014785317168
637,0.08446587495988205
638,0.08455586657029387
639,0.08464440349857791
640,0.08473655678401944
641,0.08483341423101601
642,0.08491660550635433
643,0.0849866236792102
644,0.08506123965116949
645,0.08515289236068943
646,0.08524325888534365
647,0.0853294053715305
648,0.08540484726080144
649,0.08549902446005178
650,0.08560122655620084
651,0.0857017686475128
652,0.08578750484669379
653,0.0858610988354198
654,0.08593646778733713
655,0.0860107488272463
656,0.08608634444858247
657,0.0861392287378864
658,0.0862005551591512
659,0.08627506286546448
660,0.0863299385622529
661,0.08638051446781733
662,0.08643033774330576
663,0.08648680083550807
664,0.08656318326475274
665,0.08662016956341022
666,0.08666933811684226
667,0.08674029807192417
668,0.08681639293686991
669,0.08688850632193086
670,0.08695895947612445
671,0.08704068875371151
672,0.08713112894324535
673,0.08722304246064227
674,0.08732298430488235
675,0.0874310537074215
676,0.08752741084614588
677,0.08761974573540862
678,0.08772260184730998
679,0.08784772854402806
680,0.08796875799327733
681,0.08809892076670633
682,0.08824184606891045
683,0.08837733338145629
684,0.08852718513794197
685,0.08869892546477329
686,0.08883066237371456
687,0.08899436461496782
688,0.08919003584227306
689,0.08936814344141354
690,0.08952971857408798
691,0.0896922899923846
692,0.08985602501458685
693,0.09001588696581488
694,0.09016559781913139
695,0.09032887127721206
696,0.09050989185957421
697,0.09068808370320885
698,0.09085646859382926
699,0.09101091653746671
700,0.09116549840686297
701,0.09132171970292696
702,0.09148628226856453
703,0.09162840574269794
704,0.09177479649588723
705,0.09188816424581875
706,0.09200585978906856
707,0.09214959817168605
708,0.0922697683875918
709,0.09239745268864402
710,0.09253059097033434
711,0.09265264644712287
712,0.09278366394388624
713,0.09290430102326246
714,0.09300878467268502
715,0.09311366305627472
716,0.09324526076118969
717,0.09337886092828482
718,0.09344148177900755
719,0.09354732533110804
720,0.09369145584800728
721,0.09385463514365772
722,0.0940087706568514
723,0.09409944667811188
724,0.09416880901893637
725,0.09427574790014027
726,0.09441027985228437
727,0.09452541696954025
728,0.09464517016081364
729,0.09479108176862874
730,0.09491761112986627
731,0.09504437366909649
732,0.09518087482147762
733,0.09531788265847588
734,0.09543160685429898
735,0.09554736170142078
736,0.09567825366512066
737,0.09580449622595612
738,0.09592994733334852
739,0.09605338374901695
740,0.09617744508560172
741,0.09629199308350062
742,0.09642574184126582
743,0.09655873090993713
744,0.0966724001438925
745,0.09679468390481274
746,0.09692259181055418
747,0.09705395236218395
748,0.09718480889158479
749,0.09731312988169208
750,0.09744368046622498
751,0.09756384832864257
752,0.09766574701305097
753,0.09779784825907846
754,0.09793715714024342
755,0.09805071753869615
756,0.0981709104502287
757,0.0983116779259946
758,0.09845525785196863
759,0.0985675682404224
760,0.0986215661637451
761,0.09874687986748353
762,0.0989540542274536
763,0.0990738039911071
764,0.09919694368771761
765,0.0993315608052586
766,0.0994662484390954
767,0.0996023228506912
768,0.09973366126388292
769,0.09986099751567781
770,0.09997942613854405
771,0.10010761333558976
772,0.1002454647703789
773,0.10038197578622975
774,0.10050188540222213
775,0.10062424616935056
776,0.1007541292568851
777,0.10088137896819588
778,0.10100669618404065
779,0.10114783074371492
780,0.10129006125832177
781,0.10140436753935206
782,0.10153363684074485
783,0.10168014057226968
784,0.10182782623093187
785,0.10194048095930157
786,0.10207066293620379
787,0.1022052505473
788,0.10233773999783521
789,0.1024544591967002
790,0.1025740952373813
791,0.1027070337614378
792,0.10284534771734041
793,0.1029779590999024
794,0.10310116573859124
795,0.10323700307733572
796,0.10336880313758633
797,0.10348927311540929
798,0.10359193270952305
799,0.10370179236328919
800,0.10385802125293919
801,0.10396926278242491
802,0.10408995342213068
803,0.10423855417405709
804,0.10436052094638076
805,0.10447924223370135
806,0.1046099822999845
807,0.10475267197462834
808,0.10487756346652213
809,0.10496942848964666
810,0.10506806222401278
811,0.10518701518326998
812,0.10528553273787866
813,0.10538988780034036
814,0.1055334523204593
815,0.10566269302631306
816,0.10577653875219953
817,0.10591209631024157
818,0.10606890275559626
819,0.1061976865134992
820,0.10630856988415908
821,0.10641682848176538
822,0.10653092585751758
823,0.1066238168207981
824,0.10675051934488078
825,0.10689236151674375
826,0.10702399677111803
827,0.10712908835649934
828,0.10722223889422683
829,0.10733678845713182
830,0.10749281369525761
831,0.10759379227256063
832,0.10767823279538463
833,0.10779098325359238
834,0.10792903920910485
835,0.10803784397282344
836,0.10813522981140147
837,0.10825071370897735
838,0.10839081338989565
839,0.10846513369600966
840,0.10854450004086563
841,0.10866122976268738
842,0.1087340746299624
843,0.10885546431910567
844,0.1089901898595845
845,0.10908709453225104
846,0.10914694217592845
847,0.10923990897646707
848,0.10936221627159995
849,0.10947002712326273
850,0.1095784941881053
851,0.10968782909486974
852,0.10979677096818052
853,0.1099116514933296
854,0.10999840615122053
855,0.11007847916533536
856,0.1101770165565803
857,0.11029352168127024
858,0.11037257476304217
859,0.11043823946921925
860,0.11052200772844584
861,0.11061049458124322
862,0.11070715772319292
863,0.11080062530553725
864,0.11088660680159443
865,0.111007353413319
866,0.11107978832591406
867,0.11114842938876832
868,0.11125680389329401
869,0.11137689795368542
870,0.11146069214420876
871,0.11151969199411721
872,0.11159216127126204
873,0.1117112097603553
874,0.11181481402902321
875,0.11189330654272328
876,0.11198926971918849
877,0.11206796346646763
878,0.11214636468033062
879,0.11223470478816637
880,0.11232664506366885
881,0.11239480977185298
882,0.11248660561219881
883,0.11260787644993536
884,0.11268464400031084
885,0.11275923762804552
886,0.1128562757840392
887,0.11296983317994311
888,0.11307675102334334
889,0.11317209835745284
890,0.11327004675036703
891,0.11340084950800644
892,0.11350549675411487
893,0.11361768290599124
894,0.11366682126097519
895,0.11381511519268554
896,0.11386179988255797
897,0.11393220355492863
898,0.1140333150274582
899,0.11410687420293911
900,0.11418311279738494
901,0.11425455848439724
902,0.11435452025951273
903,0.11450221876542788
904,0.11461852152063641
905,0.11470789089753497
906,0.11476570695999105
907,0.11477618136652866
908,0.11485336852272957
909,0.11497183742545125
910,0.11510480923038129
911,0.11512509044501432
912,0.11512086732584739
913,0.11515712347237739
914,0.11526583352632397
915,0.11541552894585164
916,0.11552317476682716
917,0.1156141422029465
918,0.1157205501450685
919,0.11589766401547791
920,0.11603676873953894
921,0.11610069872625897
922,0.11618866612531878
923,0.11622474735140692
924,0.11630250508335563
925,0.11635608035514197
926,0.11636295970998337
927,0.11625563173255171
928,0.11644264972410992
929,0.11649774925498016
930,0.1163413435258154
931,0.11640606142398072
932,0.11638173603134612
933,0.11645318511319064
934,0.11656217477641967
935,0.11666638350051856
936,0.11672147268099686
937,0.116889272936706
938,0.11697003081335214
939,0.11724547229278548
940,0.11713326589214794
941,0.11720368903071121
942,0.11751129330963836
943,0.11742938343478393
944,0.11750392129553047
945,0.11759751426081047
946,0.11776099794180438
947,0.11776579783364591
948,0.11793721363993426
949,0.11809172757469338
950,0.11811458738022204
951,0.11817788209448701
952,0.11828952469693799
953,0.11842860577376532
954,0.11854236162618638
955,0.11849715668282083
956,0.11846680305422727
957,0.11864932817311255
958,0.11887612627091163
959,0.11893775278783571
960,0.11893694376404843
961,0.11892896836728323
962,0.11916626072814052
963,0.1192303148966552
964,0.11937021960188982
965,0.11955442045887524
966,0.11971332529974564
967,0.11971205887671182
968,0.11981813819576925
969,0.12001306656962021
970,0.12011589266512596
971,0.12016475986275299
972,0.12030903259207991
973,0.12040525210088243
974,0.12046817982404595
975,0.12046925821177956
976,0.12065990500807688
977,0.12086237015898893
978,0.12091880236643501
979,0.1208227859713352
980,0.12103162363951629
981,0.12106708802750545
982,0.12117455591952864
983,0.12122274614537229
984,0.12153155830226615
985,0.12165239430595287
986,0.12170124352356103
987,0.12165977921533769
988,0.12187132747043969
989,0.12193812937988975
990,0.12206609208736394
991,0.12216360299199398
992,0.12220549492707936
993,0.12217710990584485
994,0.12215194352597478
995,0.1222943346782498
996,0.12232690974818644
997,0.12238414236044157
998,0.12236313895747096
999,0.12226288141645897
1000,0.12243820314048667
1001,0.12483120894262068
1002,0.12492949596375194
1003,0.12507696934658225
1004,0.1251908647777476
1005,0.12527761004302335
1006,0.12533777787736672
1007,0.12544147654699866
1008,0.1255472199489348
1009,0.12564153650159143
1010,0.125715889918883
1011,0.12580613226246162
1012,0.1259120043182524
1013,0.12600282080834646
1014,0.126084791231291
1015,0.12614910367624482
1016,0.12624755027903756
1017,0.12634650911521994
1018,0.1264252908824916
1019,0.12651787458649458
1020,0.12659493762557375
1021,0.12666715089003863
1022,0.1267445755355342
1023,0.12684577609708536
1024,0.1269147271239834
1025,0.1270316175214925
1026,0.12712292755033683
1027,0.12722232985817367
1028,0.12730360083695877
1029,0.1274130431410142
1030,0.12750641595795636
1031,0.1275778020299823
1032,0.12766388836496378
1033,0.12773080070213091
1034,0.1277986611289389
1035,0.1278857860877894
1036,0.12802342097419417
1037,0.12810920476126508
1038,0.12819001843665268
1039,0.12826422336773102
1040,0.1283349651634821
1041,0.12842559043485485
1042,0.12849024203021547
1043,0.128561533919949
1044,0.12864397632710567
1045,0.12875367290260628
1046,0.12885285152937792
1047,0.12893981776912167
1048,0.12902184640715106
1049,0.12908025875200968
1050,0.12915936809505268
1051,0.12922423709004996
1052,0.12927280920042208
1053,0.12933360168695085
1054,0.1294018996196344
1055,0.1294671281130229
1056,0.12954868103501144
1057,0.1296511498758919
1058,0.12973503045446677
1059,0.12979465418379726
1060,0.12982719395820772
1061,0.12989631497285525
1062,0.12996679310682746
1063,0.13000606262794379
1064,0.13010542526194135
1065,0.13018925575979434
1066,0.13024029270636128
1067,0.1303188808350565
1068,0.1303790500706837
1069,0.13040058683944508
1070,0.13047254014861992
1071,0.1305636589440412
1072,0.13067121075101415
1073,0.13075475079277715
1074,0.13082204897849103
1075,0.1308657267634743
1076,0.13090699639219003
1077,0.13095078516349729
1078,0.13099377671527554
1079,0.13107514588315475
1080,0.1311277992142246
1081,0.13120495972631904
1082,0.13127577532556406
1083,0.13136685988320784
1084,0.13145058153304634
1085,0.13149853627906144
1086,0.1315675116808065
1087,0.13163871242360406
1088,0.13171331808868453
1089,0.13179910463459282
1090,0.1318962772197303
1091,0.1319830120792116
1092,0.13205182133431104
1093,0.13212546330161135
1094,0.13220012923583924
1095,0.1322416325519391
1096,0.13228878238511305
1097,0.13237107947003912
1098,0.13246906123787738
1099,0.13254859545566916
1100,0.1326522208528445
1101,0.13273230076368092
1102,0.13280305587246816
1103,0.13288081139078364
1104,0.1329722759327442
1105,0.13305226529567105
1106,0.1331518040567345
1107,0.1332520506842813
1108,0.1333940995726377
1109,0.13344301501367462
1110,0.13347339739371292
1111,0.13354326117869317
1112,0.13361662078736908
1113,0.13361093932101986
1114,0.13360909468221158
1115,0.13369304024946915
1116,0.1337617985209777
1117,0.1338427588016886
1118,0.13396880750562518
1119,0.13399762378593688
1120,0.134073672966647
1121,0.13418045468394915
1122,0.1342799140235467
1123,0.1343916153566198
1124,0.13450792582818508
1125,0.13465056378414267
1126,0.13472605065067453
1127,0.13477764914612653
1128,0.13485885917367252
1129,0.13488884631190545
1130,0.1349651340560796
1131,0.13511382122312326
1132,0.1351722614679079
1133,0.1352259537693967
1134,0.13537530064538436
1135,0.13546140974492443
1136,0.13557792373990565
1137,0.1356614244798976
1138,0.1356655597692646
1139,0.1356906838426002
1140,0.13571000052820187
1141,0.13578325485126097
1142,0.13591316645826412
1143,0.13600026043671062
1144,0.13604308398945084
1145,0.1360758804558244
1146,0.13612420725541247
1147,0.13620540498877293
1148,0.13631622325037498
1149,0.13641282483441858
1150,0.13650513244143708
1151,0.1365793922537839
1152,0.13671576506896993
1153,0.1368918464623997
1154,0.13703908713123214
1155,0.13719037465074435
1156,0.13726831878464185
1157,0.1373383239905021
1158,0.13741500736161966
1159,0.13748379264676247
1160,0.1375387168408369
1161,0.13757154934531693
1162,0.1376503715866419
1163,0.1377081164706746
1164,0.13773694592026078
1165,0.13774236233885445
1166,0.13778158794820408
1167,0.1378184226251693
1168,0.13786597230464898
1169,0.13793414336951287
1170,0.13800499422512164
1171,0.13810489089608774
1172,0.13821754384407298
1173,0.13832634883365455
1174,0.1384735930473815
1175,0.13858400034743312
1176,0.13863090734678368
1177,0.13871564930254926
1178,0.13880597084927926
1179,0.13887373658336205
