Wavelength,0
350,0.05225592190925888
351,0.052621643117690096
352,0.05290062108091788
353,0.05301458125195565
354,0.05399099629717118
355,0.05448865589209753
356,0.054874493168536244
357,0.05523733386207499
358,0.05539832497237388
359,0.05556221958888104
360,0.056118365234268455
361,0.05662386367795816
362,0.05709106425777321
363,0.05736147336117676
364,0.0578369021070787
365,0.05827124906272488
366,0.05842956829875004
367,0.05869841825422513
368,0.059132905837085574
369,0.05958327757467465
370,0.05994030538589167
371,0.06039104892915232
372,0.0608113622373584
373,0.06127044010441318
374,0.06191400634088066
375,0.06245209794442842
376,0.0629440743307539
377,0.06348245833892202
378,0.06390166210310814
379,0.06445731302333818
380,0.0649969769375754
381,0.06540172425885314
382,0.06613459772811657
383,0.0667455270676802
384,0.06721478374054841
385,0.06769695695837138
386,0.0683122760533995
387,0.06888803578363753
388,0.06939453077791004
389,0.06993548909080038
390,0.07040805597341467
391,0.0708676358667404
392,0.07125240111292801
393,0.07167675708432274
394,0.07227422566405495
395,0.0728801824580411
396,0.07339556645519621
397,0.07372390925761706
398,0.07416811735014797
399,0.07451428511750616
400,0.07492671878490037
401,0.07529587636943981
402,0.0756547517185099
403,0.07589458770375056
404,0.07625558062612561
405,0.0766336163390301
406,0.07704451077597045
407,0.0774463493303075
408,0.07780233703903158
409,0.07819136740261838
410,0.07858959613767426
411,0.07892022447378579
412,0.07924866114085925
413,0.07958572481977137
414,0.08004717372159241
415,0.08038801045446803
416,0.08068299444202835
417,0.08099285965219122
418,0.0813186462778889
419,0.081701561806764
420,0.08204558951975563
421,0.08239715878592697
422,0.08275053975112706
423,0.08302991564386634
424,0.0833386146890633
425,0.0837104137436425
426,0.08401846621844879
427,0.0843369943797708
428,0.08468919556920107
429,0.08508359130990052
430,0.08545500436206116
431,0.08576996737302649
432,0.08604231880003668
433,0.08637597696153927
434,0.08669863082508598
435,0.0869715295251661
436,0.08731863769804891
437,0.08763278812035052
438,0.08786399584837885
439,0.08809693084707058
440,0.0883306679417886
441,0.0886076006442897
442,0.08888038044874724
443,0.08917220987801867
444,0.08939734887176316
445,0.08965196985435625
446,0.0899222442241948
447,0.09020348217895843
448,0.09049504715468522
449,0.0907828110899425
450,0.09109492500035767
451,0.09142587647065925
452,0.09171996654794104
453,0.0920187807019626
454,0.09234120882157468
455,0.0926849187217348
456,0.09302684626784263
457,0.09333819377103703
458,0.09362933265984529
459,0.09395259163017933
460,0.0942579512121943
461,0.09450030970532436
462,0.09476528624529464
463,0.09505905193163725
464,0.09535671886728128
465,0.0956408842161876
466,0.09589328089163561
467,0.09613308889692793
468,0.09637377520295386
469,0.09660303868519457
470,0.09683839224961498
471,0.09707131977762744
472,0.09732337136874893
473,0.09759734924880732
474,0.09779669011768836
475,0.09798701601755665
476,0.09823540518964743
477,0.09848914758585117
478,0.09870616674088462
479,0.09891457288087321
480,0.09914524349441224
481,0.09938662729581062
482,0.09962825059629203
483,0.09989192483591053
484,0.10013927558782905
485,0.10037627562648793
486,0.10062176829196268
487,0.10085407729615417
488,0.10109937276583036
489,0.10135057164046299
490,0.10159354133929466
491,0.10182579277954416
492,0.10205859935951546
493,0.10224964642484889
494,0.10244172381421181
495,0.10268297245049075
496,0.10292649585538019
497,0.10313831638157824
498,0.10334072882981019
499,0.10357703298648333
500,0.10382164737110593
501,0.10406000555625529
502,0.1042789174446814
503,0.10451191414361492
504,0.10472985923107235
505,0.10496635973431477
506,0.10521723391959557
507,0.10540432314730197
508,0.10560752172600955
509,0.10582590173050441
510,0.10603916946790143
511,0.10625481944251865
512,0.106484985519205
513,0.10671968533495614
514,0.10694316658339206
515,0.10716990854693746
516,0.10739584846858531
517,0.10761331501123415
518,0.10787337410792935
519,0.10810742799151578
520,0.1083193838594971
521,0.10852175859019457
522,0.10871217177281793
523,0.10891544249256227
524,0.10914854706690165
525,0.1093884394474761
526,0.1096121747787962
527,0.10982764787743698
528,0.11002438550623103
529,0.11025140898702981
530,0.11047814846202583
531,0.11068168203705261
532,0.11088203544935273
533,0.11109242324597088
534,0.11130021730220566
535,0.11150053078705159
536,0.11171465035044213
537,0.11191577079250169
538,0.11211114746421952
539,0.11231997985362278
540,0.11250824359294202
541,0.11270952610337188
542,0.11291284664873179
543,0.11307314418954567
544,0.11326249098050706
545,0.11344851846165864
546,0.11364545268155793
547,0.11384584880944677
548,0.11405220512536934
549,0.11424694866389835
550,0.11442896492452258
551,0.1146138651970613
552,0.11482110968009986
553,0.11503382505201103
554,0.11517191538100535
555,0.11533197599773196
556,0.11550789691598247
557,0.115705705469093
558,0.11585795254142776
559,0.11602792114805884
560,0.11621588210896423
561,0.11640968598654482
562,0.1165957398759028
563,0.11678193096819423
564,0.11688996233225987
565,0.11701476346827909
566,0.11716078677164292
567,0.11731370016355593
568,0.1174604339789129
569,0.11761457812714772
570,0.11778454932202
571,0.1179100389466014
572,0.11801656575943874
573,0.11819903729653351
574,0.11838544874632101
575,0.11851909181000118
576,0.1186265621372868
577,0.11876583026518073
578,0.1189047169434638
579,0.1190276251203435
580,0.11914157018725319
581,0.11927749565782475
582,0.11940634048110174
583,0.11950907094227824
584,0.11962064636134494
585,0.11973484360658168
586,0.11989111050329511
587,0.12003688146382016
588,0.12019387632138538
589,0.12034250216396808
590,0.12046667821760833
591,0.12055404241242364
592,0.12062367216682451
593,0.12072581018912716
594,0.12087129380731156
595,0.1209930976585539
596,0.12110777133839026
597,0.1212271383623399
598,0.12137013992314866
599,0.12148928305572114
600,0.12161759977164742
601,0.12176250426370401
602,0.12191660700094749
603,0.12206275078484297
604,0.12220120522957217
605,0.12233037225395181
606,0.12247053301810168
607,0.1225967272052495
608,0.12270626090539906
609,0.122839586043911
610,0.12296044473432917
611,0.1230715312565584
612,0.12319044686218641
613,0.12334292738859111
614,0.12347992476557555
615,0.1236147989046356
616,0.12374333602966425
617,0.1238933072359302
618,0.12403718046100634
619,0.12416594701909842
620,0.12431804935026682
621,0.12445938465457897
622,0.12458774860362502
623,0.12473724886029858
624,0.12487663281018263
625,0.12504159737250584
626,0.12521553054832016
627,0.12536150654788156
628,0.12551063064551704
629,0.12565798304648546
630,0.12581644347025575
631,0.12598279705856935
632,0.1261326578025163
633,0.12629216244576216
634,0.1264746014328267
635,0.1266155361074302
636,0.12677639384012443
637,0.12695439074672138
638,0.1271088197080546
639,0.12726429683663848
640,0.12742385339814813
641,0.1275911288574707
642,0.12776978032624284
643,0.1279177961870233
644,0.12806595998100453
645,0.12824786251424403
646,0.12842088187928483
647,0.1285840226334407
648,0.1287451377724467
649,0.12891677105127827
650,0.1290883883067143
651,0.12926596046223807
652,0.12944299757793984
653,0.1296235112427629
654,0.12978506349952051
655,0.12994432486429677
656,0.13013356784577856
657,0.1303120113684295
658,0.13047336688243796
659,0.13062580117950118
660,0.13076488953121188
661,0.13091645164706317
662,0.13107586433649823
663,0.13124105350065496
664,0.1314098041894639
665,0.1315797070912131
666,0.13175709122162668
667,0.13193096156102613
668,0.13208249982654888
669,0.13225238470422315
670,0.13243925616381416
671,0.1326084527281031
672,0.13279873386450433
673,0.1329928414401052
674,0.13317246416269432
675,0.13335151069053947
676,0.13355447020778732
677,0.13373202904140372
678,0.13394335352071657
679,0.13417127427663497
680,0.13440373395732913
681,0.13462682276398213
682,0.1348396726463888
683,0.13507602216465553
684,0.13532590934372565
685,0.13553782881676488
686,0.13576189675393566
687,0.13599230129232803
688,0.13622252132768942
689,0.13642720118755616
690,0.13662714281486166
691,0.1368456238388289
692,0.137071063238451
693,0.13729113476357832
694,0.137605524689804
695,0.13789412345604052
696,0.13815529729407044
697,0.13844836407506306
698,0.13876700977224507
699,0.1390830799638284
700,0.13936254585639368
701,0.13963615225615422
702,0.1398712118250998
703,0.14008992761866532
704,0.1403153143482407
705,0.1405346883521228
706,0.14074684914717597
707,0.14095288733659656
708,0.14117744727894407
709,0.14139039107944895
710,0.14160491517041657
711,0.1418378546866849
712,0.14202707812366658
713,0.14224722835169698
714,0.14249837796102854
715,0.1426964189091431
716,0.14288817696495748
717,0.1430686212200227
718,0.14324625685930487
719,0.14343764324274577
720,0.1436742185023533
721,0.14391445887253068
722,0.14412038492065884
723,0.14432219341867247
724,0.14451905869741563
725,0.1447198996521038
726,0.14495023831424173
727,0.14514304010484053
728,0.14533505884402725
729,0.1455590271694408
730,0.14580751693984137
731,0.1460066721010964
732,0.14619536854516738
733,0.14643282568967028
734,0.14663638961267492
735,0.14684367478051633
736,0.14706558914835205
737,0.1472649849040021
738,0.1474884223426483
739,0.1477119356083177
740,0.14792767433525975
741,0.14810725933530663
742,0.14832651120488008
743,0.148551143968713
744,0.1487647041152054
745,0.14897113473276824
746,0.14917550591538795
747,0.14938647535349275
748,0.14961425408144066
749,0.14982657206204478
750,0.15003350787612507
751,0.15026503920210132
752,0.150456528188533
753,0.15067552042742377
754,0.15089942196614323
755,0.1510952911212868
756,0.1513238012788503
757,0.15156093512807886
758,0.15177291729163686
759,0.151939822899171
760,0.15211592055976816
761,0.15241842630288124
762,0.15270999646515046
763,0.15297772582770638
764,0.15321930507901932
765,0.15345799028487922
766,0.15365393252809065
767,0.15384291640561779
768,0.15401374115183106
769,0.1542017907444488
770,0.1544211903990433
771,0.15461072461001454
772,0.1548100175653104
773,0.15502358897847476
774,0.15522788425980932
775,0.15545964298963724
776,0.1556848389486119
777,0.15587938547104963
778,0.1561039497488758
779,0.15631984435924515
780,0.15652989210561274
781,0.15674486042425617
782,0.15694531869151923
783,0.157169837870634
784,0.15740894267549993
785,0.15762126281249303
786,0.15783290850983203
787,0.1580583227825644
788,0.15829240069382647
789,0.15849788616295504
790,0.15872370056985075
791,0.15894129802802093
792,0.1591310145955136
793,0.1593481283208461
794,0.1595445645675985
795,0.15974907625689458
796,0.15998625985004145
797,0.16017301498510522
798,0.16037274374787308
799,0.1605907312611021
800,0.16080027194505678
801,0.1609947067857006
802,0.16122102414404219
803,0.16146524651507144
804,0.16163855898006182
805,0.16185543157217752
806,0.1620809909056779
807,0.1622769327499854
808,0.16247624294759058
809,0.1626563132400878
810,0.16284507534661638
811,0.16306089314957167
812,0.1632729604726917
813,0.16347299112380337
814,0.1636931689761419
815,0.16391171538531749
816,0.16411394732872212
817,0.16430336812367313
818,0.1644777982833103
819,0.1646764765364037
820,0.16490714443389973
821,0.16510028150314607
822,0.165261943199583
823,0.1654606272100472
824,0.16564903607652884
825,0.16581641338046024
826,0.16599007366075283
827,0.16618673822401625
828,0.16637244186869538
829,0.16653886539669502
830,0.1666964965048263
831,0.16688763158041364
832,0.16708905991613884
833,0.16727408570118282
834,0.16741567089917617
835,0.16757697332524066
836,0.1677682234949254
837,0.16797134227353908
838,0.1681293988935404
839,0.16830011884125487
840,0.16847392100115505
841,0.16862098429464475
842,0.16880904968878388
843,0.1689452040158374
844,0.1690797866297419
845,0.16929434856332806
846,0.16951017357118228
847,0.16967227830277676
848,0.1698108074238045
849,0.16998422845228453
850,0.1701283329432904
851,0.1702931628730187
852,0.17047313630189753
853,0.17063032184408744
854,0.17079815283348487
855,0.1709273736317271
856,0.17104350124054826
857,0.1712437888729315
858,0.1714199195942641
859,0.17158357628996856
860,0.17174580419287283
861,0.1718268349047487
862,0.17198546045289614
863,0.17215875303176595
864,0.17227451667752888
865,0.17240269673577388
866,0.17256655461100118
867,0.17276094885617252
868,0.17294900898157778
869,0.17311717773670532
870,0.17324042508778068
871,0.1733381006760365
872,0.17344583311991624
873,0.17364881504758822
874,0.17383969643416497
875,0.17397887765800985
876,0.17411068366039928
877,0.17424818815125975
878,0.17439311538306018
879,0.17454846311670436
880,0.1747041254913981
881,0.1748117829602172
882,0.17492266055199815
883,0.17509295373461317
884,0.1752662341414132
885,0.1753973675000611
886,0.17556483886543878
887,0.17576870595589938
888,0.17584820395646103
889,0.17602354227500824
890,0.17617594545102783
891,0.1762603099731746
892,0.1764088335626806
893,0.17654806528549233
894,0.17673970960646315
895,0.17688150281565013
896,0.1770300814997551
897,0.17714147527796112
898,0.17725830054404834
899,0.17741595708230795
900,0.17761628920932399
901,0.17776986830713748
902,0.17788133908722623
903,0.17806005972342207
904,0.1781600151464685
905,0.17829231474408366
906,0.1784882323583168
907,0.17860362253687176
908,0.17873227409429565
909,0.17890437539513507
910,0.17914076025918305
911,0.17919881344181246
912,0.17943321964504957
913,0.17958518870413887
914,0.179616505181729
915,0.1797801656208388
916,0.1799791376582738
917,0.18020945683795506
918,0.18037106444877868
919,0.18050606620439189
920,0.18063940884331472
921,0.1807546662414963
922,0.1809139751908905
923,0.1811159834686621
924,0.18124500354166204
925,0.18134415534207918
926,0.1814286071529216
927,0.18149944462771966
928,0.18159716918613789
929,0.1817961468536237
930,0.1819326523454916
931,0.18210220880143832
932,0.18207333016474553
933,0.18218560691054567
934,0.18232285519970706
935,0.18241598979358659
936,0.18254718276580986
937,0.18277003509765544
938,0.18295971576967984
939,0.18320867364464807
940,0.18348109684738653
941,0.1835216565818128
942,0.18369616574998462
943,0.18394364959012774
944,0.18397090374812405
945,0.18395275946856446
946,0.18404977765407107
947,0.1842819927933935
948,0.18450611311664042
949,0.18474715204142889
950,0.18493161480230239
951,0.18510939741650004
952,0.1851125242798628
953,0.18531061941843407
954,0.1854670331001393
955,0.18586677205897045
956,0.18577528318313655
957,0.18583852843951246
958,0.18617458795723923
959,0.18645962659341364
960,0.1865539553983486
961,0.18671313231476017
962,0.18676803590546712
963,0.18699286013873362
964,0.18721050150877955
965,0.18747997053536733
966,0.18762843688984954
967,0.18776043055649844
968,0.18793979285353307
969,0.1880789211049817
970,0.18812350083538473
971,0.1884280078980838
972,0.18834690068805143
973,0.18850371904134647
974,0.1887738771059252
975,0.1886966537762978
976,0.18895633390501665
977,0.18931220084936023
978,0.1894956284291626
979,0.18961221323053304
980,0.189544308637062
981,0.18981256587397025
982,0.1901733740946222
983,0.1900543275236444
984,0.19019333414167072
985,0.1904104061215069
986,0.1907441540694665
987,0.1906391585312578
988,0.1906369958590129
989,0.1909718936304088
990,0.19116747327918335
991,0.19144085655881363
992,0.19166511934821698
993,0.1918291710210901
994,0.19186525207584942
995,0.19212510714038283
996,0.19178227249547386
997,0.19201790277555517
998,0.19216766828299817
999,0.1919339724619407
1000,0.19206774208365032
1001,0.1950418798578825
1002,0.1951892720642228
1003,0.19534509288226004
1004,0.1954512405868086
1005,0.19556263248688427
1006,0.1957292945006089
1007,0.1959127438615473
1008,0.19605201499223748
1009,0.1961360278949691
1010,0.19628742254698628
1011,0.19644594849266495
1012,0.19658986785066043
1013,0.1968617905919379
1014,0.19704953398481428
1015,0.19723500405218317
1016,0.19736103618666714
1017,0.19746313839050572
1018,0.19749939039088668
1019,0.19755203312755412
1020,0.19763087325376527
1021,0.19774148649411458
1022,0.19792156987748594
1023,0.1981490751891499
1024,0.19833657881843134
1025,0.19849667651293249
1026,0.1986405159749514
1027,0.19877626594942072
1028,0.19890108411680651
1029,0.1990346177144107
1030,0.19922286450370458
1031,0.19939519029490507
1032,0.19956530873874143
1033,0.19970848409236747
1034,0.19985820058653386
1035,0.20006814452331295
1036,0.20026852656622718
1037,0.2003566370957887
1038,0.20047763204364422
1039,0.20056975447691613
1040,0.20066029341396743
1041,0.2008435524361317
1042,0.2009963027588674
1043,0.20112820513077423
1044,0.2013233804308904
1045,0.20145071453380603
1046,0.20158108199645922
1047,0.20177127110969303
1048,0.201874269221725
1049,0.20198337569294636
1050,0.20209079990028964
1051,0.20224079419439875
1052,0.20239531579769748
1053,0.20257694020407402
1054,0.2026690663729035
1055,0.20274683845861755
1056,0.20290236543085158
1057,0.20315522578028444
1058,0.20330158646871588
1059,0.20341317396989161
1060,0.20351884062523196
1061,0.20357196020558382
1062,0.20367297330117118
1063,0.2038015301683872
1064,0.203988967640338
1065,0.2042012340225
1066,0.20433701351937805
1067,0.2044360093980473
1068,0.2045282802873577
1069,0.2046369995625798
1070,0.20477113603658775
1071,0.20490474006543974
1072,0.20508825419516907
1073,0.2052639625814821
1074,0.20545404978957904
1075,0.2055932909195873
1076,0.2056876736995968
1077,0.2057552468633364
1078,0.20588818086459
1079,0.20604012437211308
1080,0.2061747368792407
1081,0.2063600349296003
1082,0.20645640539175483
1083,0.20660735674574424
1084,0.20674236515457217
1085,0.20695485972158648
1086,0.20710120688625297
1087,0.2071988457377052
1088,0.2073025270036001
1089,0.2074191681437385
1090,0.20753982907105004
1091,0.2076325315022798
1092,0.20770945306258873
1093,0.20786598071490117
1094,0.2079989843979336
1095,0.20810561820303988
1096,0.2082436503922758
1097,0.20834578650152893
1098,0.20844016386916253
1099,0.2085556778460597
1100,0.2086186446456144
1101,0.20870084786504753
1102,0.20882255996263857
1103,0.2089560993719125
1104,0.209119044583451
1105,0.20925617391963094
1106,0.2093887272557007
1107,0.20951126068554998
1108,0.20960994829295135
1109,0.20963194120329928
1110,0.20967843303165998
1111,0.20981044075537347
1112,0.2100363565099324
1113,0.2101939113797497
1114,0.21029821352965217
1115,0.21050984321683336
1116,0.21054743836736162
1117,0.21052889628088167
1118,0.21060920115482545
1119,0.2106738794146363
1120,0.21081666849646744
1121,0.2110766423903623
1122,0.21128916133227302
1123,0.21149852697371022
1124,0.21162396286038318
1125,0.21170741029172518
1126,0.21174106974703388
1127,0.21190379413480445
1128,0.21208283252565993
1129,0.212222363356965
1130,0.21231092242193775
1131,0.21249804028028763
1132,0.21267259282205062
1133,0.21280750884760893
1134,0.21293033358824698
1135,0.2130352566967902
1136,0.21319511377410755
1137,0.21323643052784172
1138,0.21330289542313377
1139,0.21336871603501484
1140,0.2135187430418748
1141,0.213634516305606
1142,0.2137572799387267
1143,0.21387261248241005
1144,0.21394117613215818
1145,0.21403659600281857
1146,0.21408441780802426
1147,0.2141822915434812
1148,0.21435657828956994
1149,0.21448363304442322
1150,0.21458126279017511
1151,0.21469126773730973
1152,0.2148203742665889
1153,0.2149851191975522
1154,0.2151349165109625
1155,0.21523794333595184
1156,0.2153752831345116
1157,0.2155371079848975
1158,0.2156656092427494
1159,0.21577908697755982
1160,0.21595998450298715
1161,0.216154136609076
1162,0.2162821507429136
1163,0.216412359486714
1164,0.21656195954179766
1165,0.2166710614388688
1166,0.21680317604590915
1167,0.21693668116300868
1168,0.2170554503017561
1169,0.21711848647877194
1170,0.21724785379950654
1171,0.21736087967669473
1172,0.21750250083583617
1173,0.21762854312650767
1174,0.2177445519344187
1175,0.21788448962914778
1176,0.21802191136389254
1177,0.21814943205510567
1178,0.21826094623457704
1179,0.2183780940386425
1180,0.21850714150211745
1181,0.21863462045461662
1182,0.2187889899541612
1183,0.21891388304606824
1184,0.21906253076481055
