Wavelength,0
350,0.049727528815952576
351,0.05002631650433219
352,0.05039601768995035
353,0.05069997367563106
354,0.05092228377551941
355,0.05120852979181702
356,0.051579205529036776
357,0.05186641928875277
358,0.05225976238829958
359,0.05262596016721648
360,0.0530861053142407
361,0.053582373352185894
362,0.05400978223718328
363,0.054503545175571766
364,0.055006975856180765
365,0.05546636052305355
366,0.05605320110088581
367,0.05659621265657503
368,0.0571838008884252
369,0.05783762011382368
370,0.058478123777537916
371,0.059285381663113534
372,0.06013335000755641
373,0.06101893208634161
374,0.06179795632114206
375,0.06266542514860934
376,0.06365527608541091
377,0.0646770847789157
378,0.0657500704942279
379,0.0668212328219121
380,0.06790978119685179
381,0.06912936946188467
382,0.07037122778398022
383,0.07162994916807991
384,0.07296016080534314
385,0.0743028167815465
386,0.07569194980828173
387,0.07709159634594082
388,0.07847046619715578
389,0.07986133914282735
390,0.08120842196416274
391,0.08250767695652428
392,0.08382080293251085
393,0.08518134376860978
394,0.08653981731880267
395,0.08786555135164292
396,0.08919721548044016
397,0.09045842836993351
398,0.0916424240156331
399,0.09282271453400034
400,0.09393666978540885
401,0.09499151226960482
402,0.09599285111170353
403,0.097016144804222
404,0.09809393602713748
405,0.09919969238800341
406,0.10030558901841984
407,0.10152474608823822
408,0.10278527675868068
409,0.1040639764400877
410,0.10533832270445057
411,0.1065957592037706
412,0.10784012652259047
413,0.10909460234153742
414,0.11038720004741712
415,0.11176267070563674
416,0.11317592666172802
417,0.1146425539869193
418,0.11617249240151384
419,0.11777739685459065
420,0.11944596434197788
421,0.12114454161804239
422,0.12288429283121077
423,0.12460442187804005
424,0.12631923587315094
425,0.12815246277209602
426,0.13005187140104885
427,0.1320360842750995
428,0.1341338076513068
429,0.13641374914985568
430,0.13872719388730187
431,0.1409851684077147
432,0.1432086259586019
433,0.14539030443323814
434,0.14758364543999414
435,0.14975632294597685
436,0.1518782647034927
437,0.15394979862405275
438,0.1559984923338476
439,0.15801355290802127
440,0.15989189859059372
441,0.16173328302708767
442,0.16344639431377717
443,0.16513278799739525
444,0.16670414429085484
445,0.16814611787606382
446,0.16947990034420995
447,0.1706963979323471
448,0.17177194792819006
449,0.17273970169665087
450,0.1736128947572504
451,0.17435254196019817
452,0.17499670631111253
453,0.17557088071421115
454,0.17606699733674058
455,0.17650623777860347
456,0.17688902183368027
457,0.17719331370531005
458,0.17748399213593558
459,0.17774051064068985
460,0.17797345182738133
461,0.1782268222571173
462,0.17848829831428076
463,0.17876312355797455
464,0.17906378223676622
465,0.17941419411858003
466,0.1798042068602885
467,0.18024565867535497
468,0.1807538065014767
469,0.18128313083184389
470,0.1818780936682058
471,0.18254976077158808
472,0.18325074867675833
473,0.18403101927487214
474,0.1848890478115862
475,0.18581517736615355
476,0.1868273576042463
477,0.18792104889337038
478,0.18910225404124456
479,0.1903418132121265
480,0.19165496816615013
481,0.1930439317451477
482,0.1945363475471728
483,0.19616956408695624
484,0.19796953242318738
485,0.19987010827323395
486,0.2018977048721406
487,0.2039499123852381
488,0.2059842407888343
489,0.20808971856171662
490,0.21025225759843955
491,0.21247856314482916
492,0.21478375905880276
493,0.21709167057179907
494,0.2194090300924203
495,0.22182470115980712
496,0.22428946444159423
497,0.2267964205874843
498,0.22917027903517728
499,0.2316055622103427
500,0.23413276305261738
501,0.23669892033584666
502,0.23933844677597954
503,0.2419388194742782
504,0.24451023522201548
505,0.24711247628365846
506,0.24959651456839588
507,0.2520354796618067
508,0.2545288961891729
509,0.25711218129680036
510,0.25965723656449097
511,0.26215892985170325
512,0.2647603572029226
513,0.2673090577317352
514,0.26989465038326177
515,0.27247847362135436
516,0.2750887140912171
517,0.2778106283389974
518,0.28052009448945864
519,0.28337942152773704
520,0.2861344555151762
521,0.2886640303905038
522,0.2913777349417052
523,0.29407524124289985
524,0.2968940092466663
525,0.299690209652137
526,0.30254042201050724
527,0.30542061186781577
528,0.3084502304910699
529,0.3112842780320656
530,0.31407148941649726
531,0.31678125905995236
532,0.3195422412448195
533,0.3225669757113714
534,0.3255325846903524
535,0.3284190266015406
536,0.3314341118683805
537,0.3346317646038085
538,0.3379055555387301
539,0.3412570517468011
540,0.3446569810912586
541,0.3480710959680487
542,0.35131520846854136
543,0.3543155805015903
544,0.3574089073963689
545,0.3605200763412622
546,0.36387765084066226
547,0.3671888157361167
548,0.3703307163289294
549,0.373466620052751
550,0.3765001676854627
551,0.37937250136970063
552,0.382590263637647
553,0.38575290748132796
554,0.3888221392317987
555,0.3917372736900051
556,0.3946799491332432
557,0.3976074381044561
558,0.4007158075549804
559,0.40368992553031463
560,0.40666553666077027
561,0.4096789587630335
562,0.4124963870766102
563,0.41505703357939183
564,0.4176173493399939
565,0.42022063193411796
566,0.4226335517553837
567,0.42487997557214063
568,0.42709540092222015
569,0.429310066060662
570,0.43139382162892936
571,0.4333887703384415
572,0.4353984100117575
573,0.43733172184208746
574,0.43938534254967543
575,0.44139884810172925
576,0.4433531679739242
577,0.44520617914404864
578,0.44702799289016376
579,0.4487291908318203
580,0.4504223452952192
581,0.4521515139350346
582,0.4538374580266593
583,0.455472177907187
584,0.45701039120243026
585,0.458492940505672
586,0.45995333343919476
587,0.4613899662678783
588,0.4628402953140483
589,0.46429025378128874
590,0.46574036848669625
591,0.4671285320028574
592,0.4684224838184498
593,0.4696713210383555
594,0.4709047246525726
595,0.47208160394420684
596,0.47320232827095643
597,0.47427922448301446
598,0.4753311234127362
599,0.47634669630574916
600,0.4773236926293212
601,0.4782690523908979
602,0.47919733414366666
603,0.48007815202177384
604,0.4809185889651248
605,0.48173999604448275
606,0.4825558751752679
607,0.48337474594946805
608,0.48417860660660383
609,0.48494082155618107
610,0.48568095828224944
611,0.4863978885578022
612,0.48709343570025276
613,0.4877740594121852
614,0.4884248016982239
615,0.48907551216922895
616,0.4897652378195504
617,0.4904106612046389
618,0.49102566726860597
619,0.49162350323081644
620,0.49222221057989124
621,0.492875570366505
622,0.4935051578603752
623,0.4941404172028986
624,0.49474932997017423
625,0.49533772459475367
626,0.49591453000707797
627,0.4964969636143036
628,0.4971163652227292
629,0.49776104171275526
630,0.4983291693846885
631,0.4988865551618151
632,0.499443422315367
633,0.4999850152327536
634,0.5005094171583704
635,0.5010761354009146
636,0.5016345334576019
637,0.5021730011414729
638,0.5027124018801565
639,0.5032566413364881
640,0.5038063873052289
641,0.5043253307885442
642,0.5048251997623778
643,0.5053347039862837
644,0.5058381375507507
645,0.5063209106387222
646,0.5068494295385348
647,0.507394700326205
648,0.5079276829425539
649,0.5084304995712645
650,0.5089425044153201
651,0.5094542803408622
652,0.5099660801837502
653,0.5105147047693972
654,0.5110712910267989
655,0.5116924520547816
656,0.5123502343667259
657,0.5129405214906657
658,0.5134628773391763
659,0.5139683197650684
660,0.5144901711856509
661,0.5150463073788363
662,0.5156347430579522
663,0.5162454509646477
664,0.5168288841839208
665,0.5174067194010173
666,0.5180425390833823
667,0.5187012256810172
668,0.5193467904367652
669,0.5199819598429757
670,0.5206231582603985
671,0.5212908837519857
672,0.5219592928693726
673,0.5226239607120553
674,0.5232931192421731
675,0.5239544555744856
676,0.5246094466779565
677,0.5252663124169088
678,0.5259432033610556
679,0.5266358561825131
680,0.5273140114256776
681,0.527947702604868
682,0.5286012502398627
683,0.5292896959144031
684,0.5300001601516013
685,0.5307005131026385
686,0.5314061032677573
687,0.5321932113182236
688,0.5329686872533381
689,0.533590280648722
690,0.5342153879903597
691,0.5348759822858027
692,0.5355522967878946
693,0.5362686447259385
694,0.5369958437095986
695,0.5376976139633975
696,0.5383812387957605
697,0.5390535272333191
698,0.5397604003765805
699,0.5405221161061191
700,0.541271494923272
701,0.5420207664238224
702,0.5427620679510565
703,0.5435060080597901
704,0.5442229971202266
705,0.544929206268828
706,0.5456540568747996
707,0.5464118808355578
708,0.5471605600756069
709,0.5479005175002126
710,0.5486681678572787
711,0.5494703588340601
712,0.5502470719670236
713,0.5509992521250948
714,0.5517801420200528
715,0.5525660059762408
716,0.5534150114520107
717,0.5543671510678814
718,0.555307099357726
719,0.5561216897579685
720,0.5567963153402644
721,0.5574595364391011
722,0.5581743613712521
723,0.5589116051542913
724,0.5597284489072167
725,0.5605553052118248
726,0.5613342997828995
727,0.562090705035859
728,0.5628488274593576
729,0.5635757725130923
730,0.5642881213666789
731,0.5649954984474463
732,0.5656809794252062
733,0.5663090823545394
734,0.566946810512645
735,0.5676219617941155
736,0.5683197727769846
737,0.569040414245598
738,0.5697232890750289
739,0.570372072700473
740,0.5710434674121714
741,0.5716980565822354
742,0.5723347221374082
743,0.5729572604285442
744,0.5735832430967464
745,0.5741877718150264
746,0.5747816304789451
747,0.5753879049526167
748,0.5759936699429762
749,0.5765800983649618
750,0.5771562447677991
751,0.5777609655109568
752,0.5783350953055089
753,0.5788911161575171
754,0.5794450508589883
755,0.5799712611425005
756,0.5805219668440629
757,0.5810711527859462
758,0.5815808071342392
759,0.5821610783722515
760,0.5827754139302158
761,0.5832697760871576
762,0.5837620677942346
763,0.5841349185056386
764,0.58455818826434
765,0.5848883591314051
766,0.5852947217980791
767,0.5856369415481739
768,0.5860170314088625
769,0.5863754025451711
770,0.5867574289120715
771,0.5871469271104695
772,0.5875207335522139
773,0.587860850106604
774,0.5882312852064181
775,0.5885469834307498
776,0.5888717747970016
777,0.5891813557958661
778,0.589506245379104
779,0.5898241722250552
780,0.5901283889682507
781,0.590390641851491
782,0.5906681576377916
783,0.5909527220879689
784,0.5911876807540359
785,0.591423330944238
786,0.5916384654175367
787,0.5918672634186517
788,0.5920911602222046
789,0.5923210153982057
790,0.5925520954416719
791,0.5927812867292295
792,0.5930363400443295
793,0.5933037543126516
794,0.5935387878777267
795,0.5936879996493463
796,0.5938605980302839
797,0.5940455255186826
798,0.5942398145064678
799,0.5944129982868688
800,0.5945584598121689
801,0.5947129654210324
802,0.5948823967243748
803,0.5950402003333273
804,0.5951950471721374
805,0.5953272796292464
806,0.5954761715003034
807,0.5956115296007233
808,0.5957376542440542
809,0.5958587955936565
810,0.5960122342583607
811,0.596110222408222
812,0.5961956444135024
813,0.5963757187735488
814,0.5964188127532715
815,0.5965091139142479
816,0.5966121241122722
817,0.5966628802481051
818,0.5966859111197939
819,0.5968057938122437
820,0.5969796101357165
821,0.5970709244919505
822,0.5971174893180915
823,0.5971620890783234
824,0.5971937351834914
825,0.5971920664169466
826,0.5972312067426988
827,0.597327098609924
828,0.5974081170867646
829,0.5974330672495327
830,0.5974783623080523
831,0.5974731594869211
832,0.597471984479861
833,0.5974846071570321
834,0.5974743915674685
835,0.5974485833217376
836,0.5974481822224931
837,0.5974626278548146
838,0.5974760225501887
839,0.5974712509038715
840,0.5974317488842935
841,0.5973817648002937
842,0.5973852830517161
843,0.5974297276124556
844,0.5974574036658158
845,0.5974845158384203
846,0.5975512264467394
847,0.5976003320658697
848,0.5976737667901408
849,0.5977528914384387
850,0.5978041808674821
851,0.5978848068931182
852,0.597889231433115
853,0.5978686862333096
854,0.5978692751920003
855,0.597876110869898
856,0.5978508655206176
857,0.5978343150696414
858,0.597853885915733
859,0.5978483235340353
860,0.5978466161036776
861,0.5978516038221464
862,0.5978570008674355
863,0.597864890799962
864,0.5978598018000139
865,0.5978731967082902
866,0.5979127105240323
867,0.5979175999954953
868,0.5978956793189132
869,0.5978651362961582
870,0.597866392101176
871,0.5978350007998972
872,0.5978579776737073
873,0.5979495962232888
874,0.5979462683265949
875,0.5979820279281465
876,0.5980444580219674
877,0.5980850428828214
878,0.5981085424651389
879,0.5981527665076896
880,0.5982036267641138
881,0.598260804329931
882,0.5983194914564498
883,0.5983559745206379
884,0.5984141985756112
885,0.5984802112534859
886,0.598534492378751
887,0.5986059110111723
888,0.598680800505878
889,0.5986814353735088
890,0.5987165820307379
891,0.5987828444252081
892,0.5988466797438727
893,0.5988709008371933
894,0.5988517338660658
895,0.5988885697586996
896,0.5989698019327245
897,0.5990470698382535
898,0.5991072316339573
899,0.5991640981589498
900,0.5992398058622543
901,0.5992939276129976
902,0.5993952325594103
903,0.5995541479160668
904,0.5996053814533051
905,0.5996254075712152
906,0.5997249170108627
907,0.5998669746728023
908,0.5998775891079368
909,0.5999934020232958
910,0.600119105801884
911,0.6001894192235708
912,0.6001759148317397
913,0.6002875817442579
914,0.6004331129184213
915,0.6005482432295525
916,0.6007679889154438
917,0.6009549493291149
918,0.6011063371237181
919,0.6012683061997759
920,0.6014900257038123
921,0.6016094143771844
922,0.6017226443077852
923,0.6019691104591445
924,0.6019765985522638
925,0.6019861098316428
926,0.6021411964121454
927,0.6023470153166782
928,0.6024478389222708
929,0.6023722152724322
930,0.6022053795846292
931,0.6019751997432139
932,0.6014444455314385
933,0.6012080189872606
934,0.6013986098088399
935,0.601189366565436
936,0.6016321834460592
937,0.6018218228942758
938,0.6016180484528881
939,0.6021609267673913
940,0.6025273606849526
941,0.602714360639697
942,0.6032120527106368
943,0.6030421890098783
944,0.6030778248783035
945,0.6030678426753258
946,0.6029451426427741
947,0.6033324356278009
948,0.6036950707579921
949,0.6035817279309126
950,0.6038209093608671
951,0.6039535471517662
952,0.60431497636503
953,0.6047003948831524
954,0.6048494762420513
955,0.6049723903138496
956,0.6051490746649746
957,0.6055155939255927
958,0.6060874609052216
959,0.6063883038417915
960,0.6066096210916445
961,0.6069621573800734
962,0.6074333611523296
963,0.6074698071894924
964,0.6076916992004788
965,0.6082464620249639
966,0.6087159517053573
967,0.6090987956539784
968,0.6094855129003722
969,0.6096372057646474
970,0.6099681806858248
971,0.6101954252643836
972,0.6105020398645244
973,0.6108394955437204
974,0.6111413205437034
975,0.6113544600217917
976,0.6117277430274326
977,0.6121525908444505
978,0.6123191610829171
979,0.6125680546571444
980,0.6129047746393927
981,0.6133383507991377
982,0.6137249344959815
983,0.6140590022012054
984,0.6143335863053373
985,0.6146777311722981
986,0.6150185294513777
987,0.6153617320684159
988,0.615548380229393
989,0.6157382573180803
990,0.6159443734059291
991,0.6164126710379753
992,0.6168113750464299
993,0.6171942012846195
994,0.6173239081342667
995,0.6175550843677131
996,0.6178770834880468
997,0.6181214318276353
998,0.6185568620402395
999,0.6186509648059777
1000,0.6188399018448594
1001,0.6223820277850389
1002,0.6227428619893883
1003,0.6230787718815998
1004,0.6234366788648888
1005,0.6238324282326211
1006,0.624110624439289
1007,0.6244204801103985
1008,0.6247247006146248
1009,0.6249494887953361
1010,0.6252768272116658
1011,0.6256538852662908
1012,0.6260122220885507
1013,0.6264276672185811
1014,0.6267659708965643
1015,0.6270458328217438
1016,0.6273896954550997
1017,0.62775712430998
1018,0.6281430252599597
1019,0.6285395272476628
1020,0.6288674954904493
1021,0.6291496450947149
1022,0.6295029844126043
1023,0.6298726387602768
1024,0.6302661686491868
1025,0.6306253193432725
1026,0.6310432312512244
1027,0.6314481400421907
1028,0.6317036802337319
1029,0.632014141187418
1030,0.6323617802107937
1031,0.6326939522922647
1032,0.6329749452056093
1033,0.6332874157968038
1034,0.6336100531726672
1035,0.6339674118448267
1036,0.6343701827545992
1037,0.6348216220784184
1038,0.6352662673251472
1039,0.6356452299038216
1040,0.6359767760836803
1041,0.6363043149279327
1042,0.6366622407240388
1043,0.6370063328216831
1044,0.6373535522508571
1045,0.6377215555505026
1046,0.6380860522876703
1047,0.6384306917082803
1048,0.6388071513203935
1049,0.6392014652043538
1050,0.6395849269279112
1051,0.6399409943304266
1052,0.6403171677701823
1053,0.6407726893612499
1054,0.6411774783075627
1055,0.6414944840652883
1056,0.6417621584166611
1057,0.6421068069088836
1058,0.6424999587051798
1059,0.6430006589860741
1060,0.6433662053598534
1061,0.6437166018359646
1062,0.6440830818046731
1063,0.6444972166919793
1064,0.6449511836235076
1065,0.6453460589608144
1066,0.6457194595041644
1067,0.6460708797458437
1068,0.6464644087115528
1069,0.6468687274414615
1070,0.6472851827026334
1071,0.6477264288974792
1072,0.6481544107905631
1073,0.648567620982331
1074,0.6489825133635847
1075,0.6493448753724943
1076,0.6497239675232273
1077,0.6501236997585906
1078,0.6506267433607438
1079,0.6510843760375186
1080,0.6514413226750438
1081,0.6518256065849666
1082,0.6521494474710248
1083,0.6525209359166457
1084,0.6529745881661778
1085,0.6534226781979457
1086,0.6537872770428603
1087,0.6542018893205759
1088,0.6546521108277231
1089,0.6550949836732397
1090,0.6555525397191089
1091,0.6560580595243801
1092,0.6565097872433822
1093,0.6568930257472643
1094,0.6573311226095738
1095,0.6577980949081456
1096,0.6582135707770964
1097,0.6586008775450856
1098,0.6591175678968975
1099,0.6595177611541088
1100,0.6599005856560016
1101,0.6601837971595335
1102,0.6605154457566345
1103,0.6609775151672801
1104,0.6613181184706607
1105,0.6617471731036985
1106,0.6622910356818011
1107,0.6628147084683074
1108,0.6633038578197292
1109,0.6637246337851566
1110,0.664106556105077
1111,0.6644850674237176
1112,0.6648474481619118
1113,0.6652462506240364
1114,0.6657162981589662
1115,0.6662280719142244
1116,0.6665526730184612
1117,0.666710146653067
1118,0.6668876532125756
1119,0.6673580671007938
1120,0.6676984998031061
1121,0.6682790572880273
1122,0.668867399673502
1123,0.6692993163455422
1124,0.6696402649154922
1125,0.6702726082440777
1126,0.6707365699150726
1127,0.6709513486607828
1128,0.671327276534976
1129,0.67164789288807
1130,0.672058499459682
1131,0.6721448893403845
1132,0.6724927955397676
1133,0.6729124350950139
1134,0.6732854079595153
1135,0.6734828264627517
1136,0.6739739548243889
1137,0.6745499963932144
1138,0.6751738792533799
1139,0.6755609877089384
1140,0.675742229810044
1141,0.675902509286889
1142,0.6762178885538914
1143,0.676515045979918
1144,0.6767693401874852
1145,0.6770684214560112
1146,0.6773407139906511
1147,0.6776773075120011
1148,0.6777421049342833
1149,0.6779052018094425
1150,0.6780285350402488
1151,0.6783639681189677
1152,0.678984044387873
1153,0.6792332223836176
1154,0.6795882768529609
1155,0.6799979019967368
1156,0.6803712566990692
1157,0.6807773466141579
1158,0.6810130679321237
1159,0.6811539214579923
1160,0.6813890735522521
1161,0.6816193650142541
1162,0.6818762191357262
1163,0.6821829566468381
1164,0.6824351075627267
1165,0.6827888036821644
1166,0.6831275951423394
1167,0.6834641414286834
1168,0.6837896988871266
1169,0.6840853821593804
1170,0.684427213424574
1171,0.6847266907426885
1172,0.685042424664696
1173,0.6852997590391418
1174,0.6856059601463032
1175,0.6859564862941807
1176,0.6862494520053839
1177,0.6864975249090197
1178,0.6867090432374241
1179,0.6869729978350967
1180,0.6871950801905634
1181,0.6874618421352077
1182,0.6879045116265372
1183,0.6882679005579779
1184,0.6885478981420687
1185,0.6889027153266861
1186,0.6892212746211077
1187,0.6895363313595965
1188,0.6898505525431562
1189,0.6901882913222317
1190,0.6904567950810829
1191,0.6907449146329288
1192,0.6910650341836784
1193,0.6913179561899367
1194,0.691634108191806
1195,0.6918863788499556
1196,0.6921774733215706
1197,0.6925083116459758
1198,0.6928045732137396
1199,0.6930842879345518
1200,0.6933728095377926
1201,0.6936625198465176
1202,0.6939238032191584
1203,0.6941520303835766
