Wavelength,0
350,0.05273832455390563
351,0.05318975193841531
352,0.0535842406671848
353,0.053900703625169646
354,0.054102049289217656
355,0.05445684509498661
356,0.054823450746789786
357,0.055135352787416894
358,0.05552792218471522
359,0.05588920191149149
360,0.05637023488923601
361,0.05680034208645113
362,0.05719610772948504
363,0.057700735953408716
364,0.05817102372792447
365,0.05858979800491046
366,0.05920391387755099
367,0.05983274538640698
368,0.06047517495228634
369,0.06113775348774893
370,0.061720480260643
371,0.0625987894838079
372,0.06362692640239803
373,0.0644766340575719
374,0.06529391088074986
375,0.06620460408765069
376,0.06725642604174889
377,0.06832310517475346
378,0.06939436308110825
379,0.07054823266767787
380,0.07172677544877734
381,0.07296929861119579
382,0.07429985609091544
383,0.07565121059514718
384,0.07706104060384586
385,0.07848748112230958
386,0.07997165667219391
387,0.08147385312213079
388,0.0828574965059182
389,0.08427643502157939
390,0.08569072244249787
391,0.08709081915691504
392,0.08855437236132611
393,0.08999229394423798
394,0.091417175174336
395,0.09286465767545524
396,0.0943104998960839
397,0.09566589746523269
398,0.09691073452881585
399,0.09809119982429448
400,0.09920943188113002
401,0.10029202464526568
402,0.10134356084674781
403,0.10239384635293276
404,0.10357779498329331
405,0.10477940453007265
406,0.10594108994278151
407,0.10723636222867648
408,0.10860048543073236
409,0.10993232568028088
410,0.11126540324797686
411,0.11257041001477495
412,0.11388402257104471
413,0.11526520649147132
414,0.11665306181468563
415,0.11809466227720206
416,0.11957455978515219
417,0.12106118578115319
418,0.12262471048613413
419,0.1242970059236835
420,0.12601365656530839
421,0.12783944567726008
422,0.1297427844575208
423,0.13163047109572643
424,0.1334776721273875
425,0.13544409690019887
426,0.1375239917457306
427,0.13958445572773637
428,0.14179121476774595
429,0.14415638401620662
430,0.14665238795933266
431,0.14916423583320793
432,0.1515799970242332
433,0.15394589082048865
434,0.15625397896826237
435,0.15840693353193674
436,0.16064206984523943
437,0.16290423700878148
438,0.16508559872115708
439,0.16711725082568551
440,0.1691259760344563
441,0.17107918306053727
442,0.17293202954349107
443,0.17467501904485722
444,0.17630123695544453
445,0.17778938559596713
446,0.17910828857476463
447,0.18031096260957308
448,0.18141080875340687
449,0.1823992089017044
450,0.18328228590537482
451,0.18402959759962467
452,0.18469905508668566
453,0.18531550970551314
454,0.18580954150066603
455,0.18624564297041063
456,0.18664698021918202
457,0.1869925147883933
458,0.18733809750509753
459,0.18763426839586475
460,0.1878952792489666
461,0.1882013078626048
462,0.1885220107892334
463,0.1888409366914383
464,0.18916614147999583
465,0.18956640509474731
466,0.1899973557398736
467,0.19045964322044592
468,0.19098553043758032
469,0.191557792441795
470,0.19219593131372092
471,0.19289566952042403
472,0.19361503446807254
473,0.19441522840630848
474,0.19529997648864503
475,0.1962605239578423
476,0.1973310684253346
477,0.19850789816358824
478,0.19975544566036157
479,0.20108585242844043
480,0.20252284572905493
481,0.20404692743095082
482,0.20566422431427678
483,0.20743436352345707
484,0.20926209482105124
485,0.21116002570474035
486,0.21320479250118213
487,0.21536254857577317
488,0.21755419664660186
489,0.21975919839326175
490,0.22208644901799657
491,0.22439399797753962
492,0.22683842048174
493,0.22939617838972365
494,0.23182873878822602
495,0.23437438167379598
496,0.2369487671055861
497,0.23952837563196
498,0.24205834725207065
499,0.24457305643681462
500,0.24727148647750413
501,0.25007682578322654
502,0.25285067320408156
503,0.2554626350291953
504,0.2580353973697165
505,0.260540887324867
506,0.26309822776582575
507,0.2657240138499971
508,0.2682977132186001
509,0.270877641791896
510,0.27329015934291
511,0.27565135009570974
512,0.2780842644456841
513,0.2804722554586998
514,0.2828257823038126
515,0.28538838691622226
516,0.28810735663833986
517,0.29088061811175814
518,0.29357383253856567
519,0.29633544629069214
520,0.2990579831428759
521,0.30172218104757553
522,0.304237805773664
523,0.3068172811335984
524,0.30920191078885007
525,0.31187525636888525
526,0.31458500517109883
527,0.31716671634487387
528,0.32009457128830693
529,0.3230444793572482
530,0.32593640610370767
531,0.328849116923607
532,0.33150227141276556
533,0.33429752185594797
534,0.3370762468957422
535,0.3401920754922578
536,0.3431425017007811
537,0.3462480299300474
538,0.34945638949484964
539,0.3525783664513983
540,0.355971176733594
541,0.35913329062430366
542,0.36248661034579077
543,0.3655441332991932
544,0.3684529695930416
545,0.37139298282234934
546,0.3745764070141924
547,0.37744622183644794
548,0.38026287853419355
549,0.3835513580665578
550,0.38670319420876476
551,0.38969745940677425
552,0.3929001585817019
553,0.3961025546040328
554,0.39922457541088163
555,0.402211787302796
556,0.4051592853985305
557,0.40812450294096836
558,0.4111215986249721
559,0.4140812531031465
560,0.4169596182140792
561,0.4196447462542914
562,0.4221674794156527
563,0.42471007821613366
564,0.42721808122877464
565,0.42963880271086663
566,0.43214252784434704
567,0.43447349884438546
568,0.4367246099149111
569,0.43880574970698116
570,0.4410515091441085
571,0.44315508153867345
572,0.4452120175676711
573,0.44718444347062236
574,0.44907759207291875
575,0.4508353316933217
576,0.45258974426381776
577,0.4542723363319183
578,0.45595855399511137
579,0.457690999821183
580,0.45937796042900475
581,0.46100641464807857
582,0.46264201811769057
583,0.46434309129570656
584,0.4660295552107546
585,0.46764601429844554
586,0.46917182821008097
587,0.4706106444160504
588,0.4719967100440786
589,0.4733284388927297
590,0.47460485714147643
591,0.4758288901035186
592,0.4770144474257284
593,0.4781264384831532
594,0.4791785666431463
595,0.48025251828638915
596,0.481271369161565
597,0.48225397050943286
598,0.48324394094497014
599,0.4842203175394753
600,0.4851582213659663
601,0.48606371358519296
602,0.4869713081875392
603,0.48782267176730515
604,0.48862204812640586
605,0.48939568441160103
606,0.49017137424981816
607,0.4909163369038092
608,0.4916167585795638
609,0.49227660400341433
610,0.4929472711724049
611,0.4936263062523496
612,0.4942739937708448
613,0.49491356385660773
614,0.4955188004178883
615,0.49611340807810883
616,0.49671927099046764
617,0.4972767886478995
618,0.4978295437114495
619,0.4983857022617012
620,0.498927256517659
621,0.49946777152760136
622,0.500019126710621
623,0.5005328540880747
624,0.5010373123973465
625,0.5015827694847685
626,0.5021074250905861
627,0.5026146686587694
628,0.5031534931942767
629,0.5036946339985952
630,0.5041523081567318
631,0.5046069000870639
632,0.5050511826143964
633,0.5055051579677379
634,0.5059804444374143
635,0.5064225525217843
636,0.5068535673286306
637,0.5072948305380471
638,0.507764061836333
639,0.5082161012186062
640,0.5086662067118526
641,0.5091204678954552
642,0.5095576959498885
643,0.5099845324387355
644,0.5104019877925174
645,0.5108089844180923
646,0.5111924280210205
647,0.5116283400139359
648,0.5120837816836781
649,0.5125941295428771
650,0.5130881625098374
651,0.5135673025556352
652,0.5140559483329108
653,0.5145796912841524
654,0.515121702466379
655,0.5156876562155954
656,0.516270239395042
657,0.5167977463604463
658,0.5172456158427233
659,0.5176789702537969
660,0.5182116151255645
661,0.518769356858805
662,0.5193288279392945
663,0.5198825302890218
664,0.5203906960400562
665,0.5209389960001042
666,0.521528992080126
667,0.5221081802978661
668,0.5227061943476214
669,0.523297577171573
670,0.523877632175624
671,0.5244852344728401
672,0.5250995988677187
673,0.5257109923324326
674,0.5263157452510522
675,0.5269252544708958
676,0.5275087667727971
677,0.5280888214175901
678,0.5286836750351598
679,0.5292891013189538
680,0.5298989587779163
681,0.5305088439764729
682,0.5311243755256794
683,0.5317532278779362
684,0.5324106524226011
685,0.5331006913170505
686,0.5337297050957894
687,0.5343822092342764
688,0.5350498646243957
689,0.5356833217678755
690,0.5363302112021555
691,0.5369527423752845
692,0.5375055936074515
693,0.5380772617231522
694,0.5386950958809262
695,0.5393699218968402
696,0.5400901192509275
697,0.5408098849248313
698,0.5415037781136589
699,0.5421716127664318
700,0.5428244069834833
701,0.5435325669834041
702,0.5442706074113792
703,0.5449891484461955
704,0.5457120356569852
705,0.5464443661824085
706,0.5472021977290225
707,0.5479885977127439
708,0.5487788289805351
709,0.5495538616809865
710,0.5503117786862886
711,0.5510957268066754
712,0.5518828479843396
713,0.5526648911584212
714,0.5534353140404891
715,0.5542164159154064
716,0.5548711270752096
717,0.5554582137832051
718,0.5562045830420246
719,0.5570143884228649
720,0.5579278807644015
721,0.5588837050445012
722,0.5597356133146395
723,0.5604461259104039
724,0.5611518943647563
725,0.5619414035066319
726,0.5627182671725881
727,0.5634935463827105
728,0.5642940984054321
729,0.5651086856041848
730,0.565872541517669
731,0.5666549584327969
732,0.5674942240147013
733,0.5683896945630939
734,0.5692602974022791
735,0.5700321334124472
736,0.5707522793513986
737,0.5715240820171071
738,0.5722883775465186
739,0.5730280196340785
740,0.5737665005549338
741,0.5744585928136304
742,0.5751160175719048
743,0.575755934702511
744,0.5763984802000934
745,0.5770116852766972
746,0.5776330865040586
747,0.578257460999259
748,0.5788101971589854
749,0.5793453181460173
750,0.5799012306219709
751,0.580471937873805
752,0.5810001002317348
753,0.5815009182234033
754,0.5820243994310219
755,0.5825234495104452
756,0.5830317313825872
757,0.5835474576064973
758,0.5840542623042025
759,0.5843142665569384
760,0.5844753875191006
761,0.5849695258609704
762,0.5854637565056038
763,0.5857910060966747
764,0.5861201557627216
765,0.586535954659624
766,0.5870339917472475
767,0.5874510980938547
768,0.5878153662026171
769,0.5881467717789868
770,0.5884700580838751
771,0.5887947542977897
772,0.5891132915983583
773,0.5893877240083243
774,0.5896319889605903
775,0.5898988642374012
776,0.590202236217896
777,0.5904654785687065
778,0.5907323066286955
779,0.5909983091467205
780,0.5912462434340753
781,0.5915121769047055
782,0.5917863350508745
783,0.5920319904791776
784,0.5922368261574245
785,0.5924654104552332
786,0.5926929127761716
787,0.5928799881950158
788,0.5930915966063525
789,0.5932711812429357
790,0.5934252061003732
791,0.5935848621869843
792,0.59377728768777
793,0.5939462749988538
794,0.5940789420595869
795,0.5941990885024222
796,0.594343776320001
797,0.5944709447214575
798,0.594558927434391
799,0.594629765291493
800,0.5947452094805639
801,0.5948555915340925
802,0.5949191115295461
803,0.5950178205893777
804,0.5951381690479751
805,0.5952462124150397
806,0.5953107659914851
807,0.595396179476652
808,0.5954581380983542
809,0.5954968467339712
810,0.5956350079903934
811,0.595830066144351
812,0.596028767106108
813,0.5962134181475678
814,0.5962020204329914
815,0.5962400539876713
816,0.5962663060824984
817,0.5962331387717683
818,0.5963816791075913
819,0.596566704367503
820,0.5966788220232597
821,0.5966610980055863
822,0.5965294290264569
823,0.5964545020275751
824,0.5965109737487355
825,0.5965993869447669
826,0.5966585142163728
827,0.5966474574378351
828,0.5965656618549702
829,0.5964970975249362
830,0.5965095199582764
831,0.5965761513504324
832,0.5966397307285043
833,0.5966370277716482
834,0.5966248147438746
835,0.5966414513820995
836,0.5966938154250051
837,0.5967641045280898
838,0.5967614828591532
839,0.5967347526670169
840,0.5967057025621574
841,0.596663544185057
842,0.596619323470635
843,0.5965927562309647
844,0.5965861249707698
845,0.5965711642852363
846,0.5965651763693044
847,0.5965445471524657
848,0.5964728335277012
849,0.5964703107385849
850,0.596517496100098
851,0.5965369834292712
852,0.5965690242421112
853,0.5965775758459504
854,0.5965638815381527
855,0.5966030100138313
856,0.5966076566073695
857,0.5965856903589952
858,0.5965732146993923
859,0.5966177273696679
860,0.5966538304734804
861,0.5966452924252056
862,0.5966015790873793
863,0.5966865373831338
864,0.5967463259874073
865,0.5967501501779039
866,0.5967720509802605
867,0.5967792728382304
868,0.596775115314701
869,0.596788536626351
870,0.5968682366954524
871,0.5968923790623404
872,0.5969131802579974
873,0.5969701833952373
874,0.5969919637340682
875,0.5970288619663422
876,0.5970821631713086
877,0.5971479397227795
878,0.5972734669139383
879,0.5973313622150916
880,0.5973564277742666
881,0.5974526118166659
882,0.5975350608217843
883,0.5976201242821162
884,0.5977141170260507
885,0.597806194595557
886,0.5978643439967313
887,0.5979449461069137
888,0.5980707231158866
889,0.5981967735126945
890,0.5982646800103361
891,0.5983323993567046
892,0.5984510259308453
893,0.5985815751557734
894,0.5986764616185427
895,0.598738702638884
896,0.5986663169368087
897,0.5986896642068715
898,0.5986810897458466
899,0.5986735842665709
900,0.598729153093039
901,0.59893258630606
902,0.5991087822406618
903,0.5992234361446008
904,0.5993019329323173
905,0.5993447393997128
906,0.5994399027861945
907,0.5994644904385693
908,0.599389119976993
909,0.5994303006790818
910,0.5994942266574392
911,0.5995205865194801
912,0.5996323416080118
913,0.5996791874903862
914,0.59972664350663
915,0.5998514406200668
916,0.5999960299814259
917,0.600235121380171
918,0.6005009899122542
919,0.600717519844343
920,0.6009704018860107
921,0.6011669023166064
922,0.6013000211409711
923,0.601400648562519
924,0.6014517753458886
925,0.6014005968797618
926,0.6012956427963629
927,0.601152254309192
928,0.6008572143737716
929,0.6003707242543405
930,0.5999555030365934
931,0.5997992947523708
932,0.5995934261568221
933,0.59899177857822
934,0.598651734849925
935,0.5986443211566368
936,0.5989325356074373
937,0.5993663836268948
938,0.5997212508676129
939,0.5997275246065388
940,0.5997038415235971
941,0.5998891238383521
942,0.600305403624799
943,0.6005752241311235
944,0.6005029120710506
945,0.6004968535914877
946,0.6009040116245744
947,0.6011516499989367
948,0.601537169288431
949,0.601819017565674
950,0.6017943217453555
951,0.6021977886217196
952,0.6025029090078853
953,0.6028000305927135
954,0.6031068393867514
955,0.603167867479075
956,0.6035616524689005
957,0.6039508101673113
958,0.6040605327573807
959,0.6043077630275929
960,0.6044411014975439
961,0.6045254494840635
962,0.6048558270761631
963,0.6051119381179566
964,0.6055640241142048
965,0.6061381621597657
966,0.6065458743291823
967,0.6069751388000473
968,0.6073942418254006
969,0.6077093696393707
970,0.6077534997077452
971,0.6082999813345892
972,0.6087847511562612
973,0.6089515116499808
974,0.6091536595201402
975,0.6094931597822257
976,0.6098479393677133
977,0.6101241592151447
978,0.6103548502494043
979,0.6108825396735251
980,0.6111362670019529
981,0.6111987055026049
982,0.6116448857310268
983,0.6120839340888115
984,0.6124404960167802
985,0.6127601255039785
986,0.6131486809377669
987,0.6132525336246569
988,0.6134680358587454
989,0.6140141553288614
990,0.6142307132100215
991,0.6145620851289697
992,0.6144227341817594
993,0.61441172754201
994,0.6147194632170108
995,0.615250438818968
996,0.6157098235480349
997,0.6158131079336941
998,0.6160230907867381
999,0.6163090475113205
1000,0.6164733111068942
1001,0.6215850149768745
1002,0.621931484172912
1003,0.6220646551612321
1004,0.6222534501794643
1005,0.622468961623462
1006,0.622762100789388
1007,0.6231023366124591
1008,0.6234522289367243
1009,0.6237815893596962
1010,0.6240680398297727
1011,0.6243612065906596
1012,0.6246544017127932
1013,0.6250063944062132
1014,0.6253552888524057
1015,0.6257858974648802
1016,0.6260893973999746
1017,0.6263609123426497
1018,0.6265413699562984
1019,0.6267087820905888
1020,0.6269470667702544
1021,0.627286365171043
1022,0.6276303729260988
1023,0.628025228827843
1024,0.6282908889636719
1025,0.62849721405036
1026,0.6288205082645326
1027,0.6291109842225513
1028,0.629389618886675
1029,0.6297038639707577
1030,0.6300214756541298
1031,0.6303115507713251
1032,0.6306241917712159
1033,0.630962816037757
1034,0.6311471423068453
1035,0.6314409361235842
1036,0.6317389898285838
1037,0.6319511216730369
1038,0.6323690978121066
1039,0.6328116976104672
1040,0.6331596616194282
1041,0.6335339627013078
1042,0.6338430746735444
1043,0.6340879057804388
1044,0.6343445520811418
1045,0.6345807915257657
1046,0.6348453879531986
1047,0.6350893417053542
1048,0.6354286089703383
1049,0.63576648690669
1050,0.6361163072642473
1051,0.6365499288418979
1052,0.636861727633354
1053,0.6371756317011481
1054,0.637607129153394
1055,0.6379017396531772
1056,0.6381595929592345
1057,0.6385356399609176
1058,0.6386777044319215
1059,0.6390644586987997
1060,0.6395168233874542
1061,0.6398568203003034
1062,0.640132358933442
1063,0.6405299441457906
1064,0.6409214475905112
1065,0.6413341314181324
1066,0.6416859013531517
1067,0.641948882262571
1068,0.6423651836939278
1069,0.6428896239044174
1070,0.6433539894451231
1071,0.6438060573220954
1072,0.6441286859394082
1073,0.6443843553702677
1074,0.6446678025527173
1075,0.6449273212193477
1076,0.6452968947253561
1077,0.6457068477428927
1078,0.6461335401715687
1079,0.6465302474745777
1080,0.6469001445436852
1081,0.6472781354886801
1082,0.6476485719792119
1083,0.6479960298230889
1084,0.6483865816117895
1085,0.6487981321669978
1086,0.6492060189955194
1087,0.6496053362129321
1088,0.6498587018683282
1089,0.650159830674114
1090,0.6504940393700864
1091,0.6507643477997217
1092,0.6510645919197229
1093,0.6514190580667076
1094,0.6517223245055527
1095,0.6520449362374363
1096,0.6524664100082211
1097,0.6529133048767879
1098,0.6533031212192532
1099,0.6536416933984691
1100,0.6540986093509158
1101,0.6544239094344233
1102,0.6547112007670582
1103,0.6551419988244291
1104,0.6554250951153422
1105,0.655705442607893
1106,0.6559853236938693
1107,0.6561670577824188
1108,0.6564218754562658
1109,0.656698645386899
1110,0.6571691457596585
1111,0.657439716436679
1112,0.6575423376814933
1113,0.6577525249889952
1114,0.6579631505700286
1115,0.6585051681268614
1116,0.659069906877441
1117,0.6596809333277679
1118,0.6603099512506954
1119,0.6605811482955801
1120,0.6610203325312209
1121,0.6616576866850724
1122,0.6622145720538402
1123,0.6623969519864719
1124,0.6626368359163588
1125,0.6632577598203873
1126,0.6638723586844099
1127,0.6644115801887788
1128,0.6647995492671464
1129,0.6649936744543132
1130,0.6653986193132091
1131,0.6657672630206812
1132,0.666279465385698
1133,0.6666049336621915
1134,0.6665943108548877
1135,0.6666431540079881
1136,0.6667665737725618
1137,0.6671478797822348
1138,0.6675537730100818
1139,0.6680022943169388
1140,0.6682312507671115
1141,0.6684371495287449
1142,0.6686885081661347
1143,0.6689074812196482
1144,0.6690827745474541
1145,0.6693023079547276
1146,0.6696784289874043
1147,0.6698302372196236
1148,0.6701064351584864
1149,0.6702861813165208
1150,0.6705109943671335
1151,0.670786658313184
1152,0.6710297395992328
1153,0.6713521083242937
1154,0.6716503483228023
1155,0.672009446712616
1156,0.6722957145807988
1157,0.6727487620895494
1158,0.6732354574914562
1159,0.6734959950614483
1160,0.6736728571349544
1161,0.6738969112769266
1162,0.6742249654696273
1163,0.6746135951886509
1164,0.6750043879356922
1165,0.6753031743000595
1166,0.6756901852307331
1167,0.6760287592578282
1168,0.6763805282436427
1169,0.6767103132316523
1170,0.6770178533069269
1171,0.677393708170491
1172,0.6777298452468162
1173,0.6780557964789355
1174,0.6784233885713353
1175,0.6787435626436179
1176,0.6790232049953338
1177,0.6793174860116222
1178,0.6795809962530112
1179,0.6798586837355997
1180,0.6801662430542739
1181,0.6804384795658316
1182,0.6806333008593632
1183,0.6809206283706204
1184,0.6812806983851251
1185,0.6815715022372537
1186,0.6818625071725564
1187,0.6821497834483781
1188,0.682397567970054
1189,0.6826187821269896
1190,0.6829141794747131
1191,0.6832978855785432
1192,0.6836259984866937
1193,0.683906428989025
1194,0.6841657675643161
1195,0.6844236718871288
1196,0.6846924135992016
1197,0.6849713503698812
1198,0.6852404427527652
1199,0.685512306663826
1200,0.6857785444265299
1201,0.6860743328142047
1202,0.6862984114990334
1203,0.6864459485372484
1204,0.6866702965599504
