Wavelength,28MAR,02APR,12APR,12MAY,20MAY,22MAY,16JUN
350,0.04764891531682215,0.0512497812274198,0.04996744142935676,0.055146550193444555,0.05302700945327261,0.05483701166783417,0.07774968403855106
351,0.0479367446186909,0.0515075685138915,0.050299061458379785,0.055461805808215844,0.05326289922229338,0.05517237073392639,0.07811894321898379
352,0.04824733569140725,0.0518773891320225,0.05067961107225316,0.055866379254991966,0.05369014922723954,0.05562335878573489,0.07878584005582023
353,0.048525980506362004,0.052127340677734,0.050988366617035055,0.05629747264466641,0.053975581763135876,0.055976399043107805,0.07938972678848982
354,0.048737328743253,0.0524109503701854,0.05121014950574483,0.056656655612673135,0.05424466609587953,0.05618910356153088,0.07977917928098582
355,0.0490221540692701,0.0527766491497622,0.0515130734005719,0.056987636164619035,0.054565504338632186,0.05652112850631387,0.08039216754856578
356,0.0492896013041441,0.0530550284665408,0.051814769512397024,0.05728600860095304,0.05489114308014245,0.056881494934026625,0.08091774976306125
357,0.0496196633111374,0.0533929631039316,0.05214361187279606,0.05770691589258954,0.05522979017079432,0.05720667514533624,0.0815405452854654
358,0.0499537429273637,0.0537733069036307,0.05248539667821317,0.05814417241715303,0.055686857551576104,0.057642343135245,0.08216669485903619
359,0.050210637194153,0.0541767543171793,0.052902518532335366,0.05856272323431194,0.05608316607016832,0.05803573180429744,0.08275352258121349
360,0.0506515864685205,0.0546314159844036,0.05336833983189408,0.059042443568561656,0.05647156452067033,0.05846595254712514,0.08354608036996514
361,0.0511414382965059,0.0550985415490147,0.05387334641429663,0.05952156406049881,0.05693686844522185,0.058887183449080255,0.08433440899153155
362,0.0515203380584549,0.0555736677000522,0.05428668615510915,0.060088201652626,0.057376741549502244,0.059388359304124096,0.08494697508166721
363,0.05197852066845595,0.0561208261430101,0.05484029190418052,0.06070497520836245,0.057911057582658784,0.05991427656645293,0.08574213791330829
364,0.05240391240230015,0.0565899629848668,0.055333986822331135,0.06119854392262272,0.05837419822194628,0.06037425680773885,0.0865134067597095
365,0.052733203807053805,0.0570529268520538,0.05582231728264389,0.06166818442077507,0.05881010198591192,0.06083390969667936,0.08725205842647943
366,0.053294932754738296,0.0576008582963358,0.05636582996761638,0.062321522581170144,0.05935003735279582,0.06150401081133802,0.08817237342540887
367,0.05377237753032975,0.0581636246701919,0.05693356521328123,0.06302993670850135,0.05982745587832875,0.06208351184195814,0.08903244562654258
368,0.0543236772080045,0.0587443089159365,0.05754313806374084,0.06369899085589445,0.06043434327597974,0.06268376483229175,0.08988411780674178
369,0.05501625460021935,0.0593353557240211,0.058161457877949824,0.06446992199623414,0.06118532682657894,0.06345307538256525,0.09090420807256222
370,0.05570212419310905,0.0600535238343892,0.058796685506857876,0.0652304822429054,0.06190593623811766,0.0641080122284112,0.09199243153272199
371,0.05642197922007215,0.0608434064318781,0.059592346874740104,0.06610122015196683,0.06270220638674408,0.06498142344496377,0.09321392980626535
372,0.05719934132439635,0.061733937865327,0.06052262306880252,0.0670699710967306,0.06363438026630566,0.06597361566631085,0.09454486491160186
373,0.057881318675039,0.0625646900179032,0.06140822354969929,0.06802300939732325,0.06454670682588311,0.06695918019701003,0.09584048165156948
374,0.058717053602193495,0.0634547262082084,0.06221540465222191,0.06887057419636233,0.06540377744693347,0.0677878965844156,0.09714964925208885
375,0.0595518514073284,0.0643200610815041,0.06310337976122737,0.06984337342965483,0.06631854286466946,0.06872918877449186,0.09848032188638317
376,0.0604017217518648,0.0652993192375041,0.06405529417291447,0.07088641487216146,0.06738386081854235,0.06981184376115024,0.09992018354449858
377,0.06143598227649915,0.0662928721786451,0.06508608545273323,0.0719798273130858,0.06838858165148637,0.07084630540885964,0.10148804873319692
378,0.062433174742688946,0.0673717756552748,0.06616450125045205,0.07316542699117479,0.06952724946770883,0.0720542362131723,0.10313405929282637
379,0.063492032330622,0.068463509204301,0.06725423352285834,0.07438386853261852,0.0707569738928831,0.07331579189974752,0.10479796655134459
380,0.0645328279615885,0.0695354598329066,0.06835779049715762,0.07559861067374211,0.07196029205810675,0.074533952147236,0.10643211448780096
381,0.0656744349253536,0.0707314489074371,0.06957630488011238,0.07694243337516773,0.07318786362259379,0.07583267918584082,0.10821618273972763
382,0.0668387499656905,0.0719441536970809,0.07079124223295787,0.07833836095533675,0.07446894047556366,0.07717880326587231,0.110018347614718
383,0.0680468358920344,0.0732117685088678,0.07205148142162937,0.0797085491311589,0.07581273310122817,0.07851786083594914,0.11190621676856696
384,0.06940376144315516,0.0745608488716112,0.07346578666706928,0.0811939483698576,0.07732568856073099,0.08008504104303861,0.1139459456838478
385,0.07072704360644336,0.0759345897193546,0.07479971028720844,0.08267892007039845,0.07879344130946815,0.08156266223996961,0.11587043303201475
386,0.0720869249131379,0.077327550481937,0.07617974554243254,0.08423929441432106,0.0802879438040431,0.08310985955519368,0.11789753764966339
387,0.07341670467934415,0.0787392770685658,0.07759990162782791,0.08580532130073808,0.08180851486765188,0.08467468844584576,0.1199343833370008
388,0.07461609646573225,0.0801137398026716,0.07897836165014696,0.08729873565518795,0.08320993973678197,0.08613241606037537,0.12184068212789081
389,0.076001155773554,0.0814961402433651,0.08037602002831654,0.08875891511918307,0.08463010944509676,0.08758372991212254,0.12386072472500803
390,0.0773260628774428,0.0828073699978586,0.0817308470555605,0.09019524084379268,0.08601347859573474,0.08900177072085866,0.12584197546101553
391,0.0785113797739252,0.0841803577837165,0.08307716971000116,0.09166547831690236,0.08745800935742763,0.09047113123621287,0.12769618964084994
392,0.07985930297479654,0.0855483214028916,0.08440044434780107,0.0931550505350576,0.0888871924779861,0.09200401931295375,0.12956245750924772
393,0.08119433162123735,0.0869133837443743,0.08575808074506037,0.09459669859217625,0.09034880618913564,0.09347558526396507,0.13145802196066994
394,0.0824588458799293,0.0882490519955495,0.08713891990215064,0.09608743214290966,0.09182248260781584,0.0949102562797613,0.13335842402926007
395,0.08374078827191506,0.0896180284116795,0.088505205012999,0.09762004139218003,0.0931461572091844,0.09638472150700629,0.1352149288701327
396,0.08498242886575666,0.0909793994348984,0.08983216770239841,0.09910636740299503,0.09460034703276984,0.09786236856053611,0.13706364996855525
397,0.0862092801368202,0.0922788578577638,0.09108464633841984,0.10043123748595248,0.0959887689978661,0.09929510390014887,0.1388965054666622
398,0.0873680276372763,0.0934920303856236,0.09234267030883603,0.10171393355938091,0.09724816089953209,0.10065504429823584,0.14060463522845107
399,0.08852324411088569,0.09467766524557901,0.09351718767948765,0.10298829797913199,0.09864158731149104,0.10199505012860613,0.14216054853461074
400,0.0895522477679512,0.0957573821017733,0.09462335948720663,0.1041709361857646,0.09972870157557698,0.10313426967590028,0.14362147974671036
401,0.09051706703309184,0.0967785869192578,0.09564055231267966,0.10527065430557818,0.1007520825027658,0.10423792806873479,0.14498744929361213
402,0.0914723580422251,0.0977784576450578,0.09661364969703393,0.1063273050818387,0.10189857810704528,0.10535158922075452,0.14628838631313296
403,0.0924226892941679,0.0988149026646869,0.0976590815304271,0.107420324835189,0.10297313774989168,0.10646387822747164,0.1476190525824266
404,0.0933890853763858,0.0998979662471815,0.0987104191595262,0.10860116032715994,0.10410636306832481,0.107662037587543,0.14908032917825592
405,0.09443019396431175,0.10099200090841999,0.09977553430683667,0.10983346935481525,0.1052598949629261,0.10887494953338445,0.15056237075772153
406,0.09560858938372675,0.102142582214619,0.10088307850699227,0.11109240819345631,0.10638129930045925,0.11000568826630575,0.15202443649071812
407,0.09677516230617139,0.10337107153579599,0.10207457853274815,0.11241078612118306,0.10765017945747256,0.11133527051156206,0.1537193390587757
408,0.09797495666975356,0.104623822737684,0.10334921114489776,0.11378078198175956,0.10897337190993656,0.11270787452367442,0.15539243133659486
409,0.09919311775775795,0.10587500613181901,0.10458244524440138,0.11516369168934233,0.1103068641317326,0.11405546061989139,0.15700386916163306
410,0.10040058133457949,0.107133979894343,0.10581507417838122,0.1164990126187512,0.11170785016880454,0.11544731734976439,0.1586814706592308
411,0.1017022844994895,0.10841526391611801,0.10709121685845453,0.11784404132025522,0.11314434901575178,0.11678821534398079,0.16037665701786855
412,0.1030046980083825,0.10970689850127699,0.10836441731671508,0.11924603121549286,0.11452468457026253,0.11812958356060733,0.16204862770346262
413,0.10424973867097151,0.111003546909436,0.10963404914150113,0.12068067456239796,0.11590737707506005,0.11950884794607004,0.16370937194855628
414,0.105557189230733,0.112337894783811,0.11097771385959823,0.12216474184394531,0.11735128606467018,0.12093878741460803,0.16540249914110167
415,0.1069036227777625,0.113727301699527,0.11239669812280698,0.123661731053045,0.11882217787065279,0.12240997248743453,0.16717125565091084
416,0.1082994408015075,0.115197235229797,0.11381420721562405,0.1252146129326842,0.12029987271094751,0.12395981462922537,0.16896042140250755
417,0.10976156219821899,0.116669180180514,0.11523390091252322,0.1268233807647935,0.12183109369887277,0.12559909511561979,0.17078370757893369
418,0.11125317537215601,0.11816283397461802,0.11671518391285968,0.12846949230226468,0.12344118586812741,0.127293284668056,0.17265665684946108
419,0.1128137266401425,0.11974399571051199,0.11827124169585268,0.13011944427968558,0.12509764717669095,0.12896394184693555,0.17455930323272079
420,0.11443097273542202,0.12137333273795599,0.11985016739132262,0.13187559780941827,0.12679595728558726,0.13070751393655952,0.17655133761251635
421,0.1160118959788535,0.12305858510831401,0.12148300553362705,0.13375193798604454,0.1285679193293887,0.1325388505821251,0.17859785700822223
422,0.11766767110971652,0.12481057686300999,0.12312829036166498,0.13565580749241785,0.1303969832169318,0.13443729962639764,0.18071487050039403
423,0.11936412663205499,0.126607324127605,0.12480545236364579,0.13755436211464409,0.1322426101790843,0.13634387907321838,0.18283759624204016
424,0.12108090971208951,0.128401943899585,0.12654809115557503,0.13945569840285793,0.13410599678875915,0.13821563748959148,0.18500286790033965
425,0.1230070057444885,0.13034436502321,0.12844994632630358,0.14153981240974856,0.13610040453511624,0.14029388451420038,0.1873554448249759
426,0.125010389388767,0.132351484738617,0.1304436922609725,0.14369094971023422,0.13820302759190914,0.1425402870044773,0.18978995596228726
427,0.1270853355342605,0.134451338933227,0.13253784864771728,0.14592287769225734,0.14043229815155628,0.14479413697522675,0.19228904580296424
428,0.12921766781508498,0.136627777436744,0.13474407281000328,0.1482994116393881,0.14279891546179446,0.14717057101005437,0.19484493201449968
429,0.131406870761916,0.139006314002273,0.1370051754596388,0.15074293443920533,0.1451754487393527,0.14971480507392032,0.19762689582972653
430,0.1336565609941925,0.141341238822919,0.13936016973525037,0.15328676067581554,0.14761638940413288,0.152308918790625,0.2003055509818911
431,0.1359110656954285,0.14367223533964998,0.1416603451488666,0.15575502382587186,0.15006485811353054,0.15484254951457893,0.20301145063423812
432,0.1380792603450425,0.145990311363267,0.14396096519320992,0.15817798155771315,0.15240449712362863,0.15729411000738155,0.20576624047731987
433,0.140244083206149,0.14827025803023097,0.14619379295819976,0.16054011423260628,0.15486822500363787,0.15975939710117948,0.2084808086535624
434,0.142393070329898,0.15049647275705802,0.14834514820122602,0.16287935637962458,0.1572279285062073,0.16205289310961382,0.21111745770427204
435,0.144512225077219,0.152705167014384,0.15049364597407772,0.16517356600766991,0.15957424587740274,0.16436689932698523,0.2136875293041824
436,0.14653788417666452,0.154827253206271,0.15260244818022337,0.1673804178843055,0.1619198861059365,0.1666140180130148,0.21616211262380455
437,0.1484729053202265,0.156954738041999,0.1547145853283995,0.16956573369656683,0.16416419594604342,0.1689082007443818,0.21854482585747914
438,0.150429884475891,0.15907750839090698,0.15673772240250472,0.1717390779551564,0.16642166715999132,0.17119609194421226,0.2209172153576195
439,0.15235347898574403,0.16114750038002898,0.15865988630485878,0.17394281247924676,0.16850707009022914,0.1733889474515014,0.22322806084909044
440,0.15429200206243748,0.163111549611781,0.16060650783987196,0.1760005375926902,0.17051965992648424,0.1755322916345584,0.22549527401409014
441,0.15613820773458098,0.16495399110165,0.16244627747583001,0.17791480146597297,0.17258254013708976,0.17759177340579596,0.22762507216597383
442,0.1578616482011415,0.166706454381836,0.16414396897150735,0.1797290691884998,0.17444076935872596,0.1795160735021925,0.22962835539442522
443,0.159506952070303,0.16836047692319003,0.16573874307286707,0.18148212216211612,0.17623381419549491,0.18127660952693084,0.2315405925153376
444,0.1610595964995245,0.16988725907810998,0.16720495993808807,0.18315952182644915,0.17789057973496464,0.1829228869290238,0.2333981454930065
445,0.16250351686606598,0.171352776489394,0.16857010939119368,0.1847081048271098,0.17931252937433667,0.18443654365042694,0.2351184197186361
446,0.163814351470201,0.17269562283945003,0.1698680539905525,0.18615109026525045,0.18074059649008034,0.18581151462121856,0.23662641210808444
447,0.1649983448910615,0.173919734507814,0.17108492117420948,0.18746439578155427,0.18199972795617114,0.18710896401989996,0.23805715558421783
448,0.16608107688967602,0.175030589177017,0.17219508394904753,0.18862639790534896,0.18316639890676473,0.18828663697568987,0.2393639005830657
449,0.1670660849173835,0.17602224104795802,0.17318508727009913,0.18965503165348538,0.184229611027653,0.18932804215784163,0.2405393976104399
450,0.167940097943437,0.176883519128566,0.17405628660466776,0.19057374686802064,0.18512250502221383,0.1902228193426968,0.24160463136625912
451,0.16866050601849597,0.17763316873263998,0.1748133256541148,0.19134536337064473,0.1859218845556294,0.19099997811628144,0.24253822731354086
452,0.169268567172352,0.178281547081531,0.17547323264536227,0.19205729434621455,0.18661989563112114,0.1917084416280661,0.24332333837140757
453,0.169816166771146,0.178830617775786,0.17605563763878684,0.19271018113232075,0.18721315280163806,0.1923395446477347,0.24413029690513638
454,0.17030114897253,0.17932539841443,0.17658202085530195,0.1932420684256792,0.1877289412079003,0.19288992855268589,0.24484120814753502
455,0.170723610241225,0.17975531250341,0.1770334140782073,0.1937081033207239,0.18817376879294484,0.19339067023452003,0.24548476404467068
456,0.1710786105420125,0.180111686956093,0.17741383997572874,0.19411798283094703,0.18855880372165645,0.19381248587970396,0.24604701569487386
457,0.17136824188940047,0.180376112938154,0.1777390921011543,0.19446611100554473,0.18889401249929652,0.19414429160821142,0.2465311635267497
458,0.17163053541865497,0.180636539332133,0.17803141153721072,0.19478794336426442,0.1891708472256188,0.1944805067049145,0.2470274497176279
459,0.17186766685097202,0.180848095175635,0.1782800245747434,0.1950601531124815,0.1894225408776336,0.19477140364768494,0.24749197568870174
460,0.17207590525245248,0.181025091051198,0.17851276698122415,0.19530786865113203,0.18967127710251805,0.19502366562480158,0.2479853069829585
461,0.17230596436561352,0.18124392442297899,0.17879289291252515,0.1956346291488555,0.18992470324696728,0.19530410973763007,0.24850384985760207
462,0.172537800372041,0.181467364580203,0.17905694173122177,0.195931139589321,0.19019775669355035,0.19558599322486364,0.24902107055689732
463,0.17278664408590452,0.181733878037302,0.17934676560373086,0.1962302703375975,0.1904838332787327,0.1958973816173319,0.24955245320567837
464,0.1730702643076385,0.182016492635163,0.17967890702923792,0.196576555941945,0.19082836551643698,0.19625325955184286,0.25014035520490496
465,0.17338871567664,0.18235746408258396,0.18003951634581833,0.19696518767036436,0.19123358941985724,0.19668700006959738,0.2507939715755695
466,0.1737546632602965,0.182729343335799,0.180451754832205,0.19740715661798303,0.1916891383084233,0.19712772394114902,0.2514687197147853
467,0.1741706152267775,0.1831335532458,0.18091726095133137,0.19789731535658928,0.19219972355967385,0.1975917261429456,0.252160993195232
468,0.17463615320386247,0.18358690767870497,0.18142593825107461,0.19843495895538374,0.19275692525225605,0.19813439833832575,0.2529204233154382
469,0.1751734335186425,0.184105136768867,0.1819731173013732,0.19902508838240512,0.1933635866630955,0.19873123107762114,0.25372423629327306
470,0.175738511347321,0.18467804544175898,0.18257493102930122,0.19968244853891853,0.19401970020000806,0.19939320919066608,0.2545697994668476
471,0.1763515964677005,0.18529930517002802,0.18324127285310177,0.200411193613699,0.19472638999310285,0.20013144107083036,0.2554690738724569
472,0.17703823776433852,0.18597147719692603,0.1839699040624606,0.20116836207005062,0.19548602489224487,0.20090508061177925,0.2564497368418102
473,0.17778249255888454,0.18672308203138502,0.18474893487692332,0.2020050802997934,0.1962925961723105,0.20175321103049465,0.2574865400169538
474,0.17859341586841698,0.187569322381113,0.1856057097548294,0.20294649345801136,0.1971707621824869,0.20269397168841818,0.2585794217959827
475,0.1794832652783575,0.188439884820108,0.18655057843834105,0.20398235659381364,0.19814242299649143,0.20373047054962734,0.259742085654751
476,0.1804821661094835,0.189429912329031,0.18758431508944545,0.20511691642109775,0.19919574024505193,0.2048420524766114,0.2610189581041798
477,0.1815746965884725,0.19051357159867202,0.1886926160685105,0.20634550247345768,0.2003890619434261,0.20603289707562192,0.2623643822290117
478,0.1827492597535315,0.19165594455050602,0.1898741182502206,0.20765779161003345,0.20161319335600614,0.20730319076990866,0.26375889183344636
479,0.1839755232258145,0.192866039074461,0.19114010328539321,0.20904229065511182,0.20285357146896238,0.20864796178053238,0.26519583534184643
480,0.1852909720093805,0.19419168902322895,0.19247811007131238,0.21045711973550335,0.20425324152524774,0.2100302534506906,0.26671286227311486
481,0.1866915885930745,0.19559321799540802,0.19391329889902278,0.21196815245049022,0.20580642035835522,0.21149705023051274,0.2683131058471807
482,0.188173648991513,0.19712387383195804,0.19541562725461695,0.21357894572430458,0.20745004195554897,0.21307135711116354,0.26998852617104474
483,0.1897573224994225,0.198733659697147,0.19702250848969496,0.21528647630484815,0.20919950325427056,0.21478601985207454,0.27176569865224165
484,0.1914801215938015,0.200450335905222,0.1988005672468268,0.21714517939989003,0.21107438961211386,0.21671574918077546,0.27364771878388106
485,0.19334909999072497,0.20229427641610198,0.20068475424613652,0.2191387113495265,0.2130912011358036,0.21883454041912712,0.275715357606485
486,0.19531262832504798,0.204282396545716,0.2026135266073446,0.2211668346808286,0.21515481228887515,0.22103602264909422,0.277920836369554
487,0.19738013761753198,0.20634873812967103,0.20463564840103007,0.22334523548299284,0.21724265019431713,0.22337078743668298,0.2802114624956994
488,0.19954348439314049,0.20843996271653398,0.2067345772443941,0.2255587115027372,0.21943945313576574,0.22568842983354437,0.28247356534510326
489,0.20171634713818548,0.210498823618709,0.20890388873644827,0.22786515303219235,0.22167853279390354,0.2280268098764069,0.2847339686878033
490,0.203879521853718,0.21264457371813,0.21107932826332645,0.23019540335406946,0.22394591043244855,0.23035325870402656,0.2869765040189749
