Wavelength,08MAR,17APR,09JUL
350,0.01300302584376177,0.012876865538908235,0.01530510893998278
351,0.013068712230275194,0.012860024385789632,0.015187641087375022
352,0.01318395110269562,0.012878192451073564,0.015379836001985515
353,0.013237274089880536,0.012866370600964256,0.015497038712514049
354,0.013230995061679922,0.012817876442815132,0.015561163649089065
355,0.013230218754995684,0.012780292614513434,0.015654428373698022
356,0.01336323644793173,0.012927398014613284,0.015604140562746107
357,0.013412577979378025,0.01297027326862183,0.015620441777808912
358,0.013423723921389175,0.012956817719075083,0.01568495833036763
359,0.01350227984985018,0.013012410393842074,0.015703800652959506
360,0.013511729356318244,0.012941170066813197,0.015715382915527522
361,0.013539196946311,0.012939772384301178,0.01565409567683837
362,0.013606136231188705,0.012983267857148543,0.015580703006551863
363,0.013690033907657644,0.012961499681930536,0.015591085951531549
364,0.01375982032398447,0.01301503958159068,0.01560383405608736
365,0.013836151914760902,0.013035266760711383,0.01558098468903007
366,0.01392390080667596,0.013025676280743343,0.015565221136847426
367,0.014012205986404761,0.013067237064054688,0.015629072304108326
368,0.014069242730006716,0.013105257203147268,0.015648283131251745
369,0.01414618279459907,0.013146683621180598,0.015659321918488296
370,0.014245144877737355,0.01319841744682836,0.015701438049922214
371,0.014318304487867224,0.013260311684726791,0.01578670190310685
372,0.014434845061595104,0.013305989278954258,0.015797249398585494
373,0.014562284119967468,0.01335769525750125,0.01586463509741849
374,0.01467766521693566,0.013433660978986035,0.016010116672460235
375,0.014794141578435548,0.01353595177015088,0.01605021842496588
376,0.014889524672841001,0.013621723394002073,0.016134657525609858
377,0.015019700601664665,0.013716452749613216,0.016249136598149742
378,0.0152026439869808,0.01383778486888523,0.016362018987373335
379,0.01533801554313208,0.013952157281312022,0.01648049971674573
380,0.015466264474127802,0.014048003178609603,0.01660761622709637
381,0.015599534043539344,0.014144495493677982,0.01676658878852443
382,0.015754442874313754,0.014268680527829218,0.01695449206034472
383,0.01599064813411973,0.014437354052571775,0.01707184499810973
384,0.01621786808552552,0.01461184657831957,0.01721391395204142
385,0.016422822212376884,0.014784824420900712,0.0173928911229629
386,0.016629842181730695,0.014963514585768228,0.0175766165037648
387,0.0168351751977285,0.015142898261315074,0.017721171722383616
388,0.017057877567592177,0.015320963359733802,0.017898495946448434
389,0.01728188423232997,0.015512082505429903,0.018088535671104747
390,0.017482465199652356,0.01572753069901837,0.018225345117016862
391,0.017751142814350963,0.015863462025629372,0.01841493790180892
392,0.018044017349685915,0.01604671876192979,0.018608003307890565
393,0.01833761188971834,0.016308680804075174,0.01879762335960876
394,0.018644968479085013,0.016563056242123127,0.019030441277275146
395,0.018991876333882038,0.016793062000689536,0.019270929575477033
396,0.019319463360817878,0.017024965529057592,0.019475016392002466
397,0.019611145637767613,0.017269512104050023,0.01964287458521297
398,0.01993135616984366,0.017507353774568465,0.0198358274017943
399,0.020240831884248262,0.01773151242256818,0.019998506511280444
400,0.0205269738983051,0.017930235881005768,0.020150198879745562
401,0.020798529672687305,0.018111513863767303,0.02031795495692261
402,0.021098232357745,0.01832766076788885,0.020514730117469602
403,0.021406043307115787,0.018572490738953652,0.020718763926617347
404,0.021718908443075127,0.018820123743208916,0.020934577459545484
405,0.02203829052557102,0.01905395580779202,0.02117052469492342
406,0.02236405870545972,0.019328037072892212,0.02141672689150754
407,0.022714156707851697,0.019611635495313008,0.021669923377076804
408,0.02307548523712173,0.019901424200196093,0.021934576833987866
409,0.02342325274814071,0.02020588142110612,0.022215788939160094
410,0.023785903920680272,0.02048927053058812,0.022498478157704106
411,0.024135482553344478,0.02075583616842808,0.022767156002811085
412,0.024472848503801145,0.021019601157528985,0.023024785031295354
413,0.024825543009987964,0.021295601395193254,0.023290797866823466
414,0.025153473968632357,0.021558238746011,0.023579117910053213
415,0.0254748665437846,0.021825546637209602,0.023880959837201034
416,0.02580228156778241,0.02210337202975304,0.0241727135204506
417,0.02612301875973543,0.02236682342259638,0.02441325688699796
418,0.026441023602069774,0.02261881341769279,0.02466984709486951
419,0.02673765321154087,0.022870612117607377,0.02496252067882529
420,0.027010985120062694,0.02312175617600532,0.02527120496108247
421,0.027318710386216367,0.023327683129447538,0.025505740045176434
422,0.027626187883443915,0.023559083352129785,0.025755741754578235
423,0.027900984308703223,0.023798971245832943,0.02602329754604016
424,0.028130075563898148,0.02400616952948967,0.026281359525883084
425,0.028375658865866182,0.024207448611837882,0.02654199980866684
426,0.028627157868257768,0.024400222841747844,0.02679638320623762
427,0.028871022707749022,0.02459142042905626,0.027041779019181134
428,0.029097855967700818,0.02479329586813117,0.027281888905985492
429,0.029323247508077452,0.02498879554848848,0.027519789591616994
430,0.029547574678126597,0.02517079132982487,0.027761467026916037
431,0.02976202394654153,0.025336699832323274,0.027993924090538243
432,0.029952212034529378,0.025488766803999183,0.028185564133921055
433,0.03013889585777695,0.02562629645516782,0.02837699626487103
434,0.030320907753036478,0.025765883150211753,0.028565223605018418
435,0.03049091918354473,0.02591008868862669,0.02874321456846344
436,0.030633179439328348,0.026023247960763586,0.028914897326127183
437,0.030793069862774806,0.02614312154242001,0.029076265774844744
438,0.030960329055080008,0.026264492236550276,0.02922745517337003
439,0.031115202134732525,0.02637511867989025,0.029376434916189673
440,0.03127669999853131,0.026489199904658218,0.02956008574815901
441,0.031435969329230845,0.02661591322227081,0.029723919412131646
442,0.03159030728233837,0.026745921133567385,0.029871481752531282
443,0.03174283392487895,0.026862411177922988,0.030037386715784327
444,0.03190116309745457,0.026978174341187072,0.0301880178058346
445,0.03206196626017791,0.02709491479457466,0.03033844248209931
446,0.03222307163435819,0.02721622157522464,0.03049764884822451
447,0.03238527158206502,0.02734844535605736,0.030661548632953266
448,0.03254750915317788,0.02747256609820364,0.030801054224569177
449,0.03271041049037826,0.02759468347079637,0.030943438572782037
450,0.03287304267873049,0.027720057487474914,0.03110404735020326
451,0.03303055115971125,0.0278398419526701,0.031245740964109647
452,0.03318687412545112,0.027962448933623433,0.03139068532900259
453,0.03334113723770539,0.02808358786911281,0.031536608210655896
454,0.033490394996389325,0.028196088315238836,0.031677207938327
455,0.03363038133612328,0.02829994561465897,0.03182710819973444
456,0.03376502675527683,0.028408217778718742,0.03197234390913333
457,0.03389498606883897,0.028517737819373085,0.0321092016216424
458,0.03401876332106987,0.028614611449373353,0.03224264450317969
459,0.03413988952230498,0.028703958551827807,0.0323729143690299
460,0.03425481973100893,0.028789371687308413,0.03250588836117327
461,0.03436222448801366,0.02887290020873057,0.03263903268918886
462,0.034464615607587824,0.028954173546320166,0.03275739845494631
463,0.034566302567374606,0.02903413804604929,0.03288732753182889
464,0.034669912200729965,0.029115397597953754,0.03302096892156585
465,0.03477457879557155,0.029199697150304238,0.0331492340922432
466,0.03487231170673854,0.029287217270118675,0.03328597392830273
467,0.03496886467301357,0.029365452678873742,0.03342539428485481
468,0.035068071285965854,0.02944186888906664,0.03355926591261948
469,0.035171798593880144,0.029528381014069443,0.03368304258540366
470,0.03527567823066454,0.0296014272848163,0.033818776920758166
471,0.03537580993434822,0.029676659096827398,0.033951186216011675
472,0.035476627757658745,0.029759572624770053,0.03407868267710167
473,0.035588360427838056,0.02984368566774305,0.03421400489342086
474,0.0356895343786597,0.029934111301867964,0.03434944797119477
475,0.03579211664484608,0.03002482921391212,0.03448250860836021
476,0.03590364784553707,0.030108984545630265,0.03461322590915666
477,0.0360125892874501,0.030180549628044305,0.03474462278659079
478,0.036118257104205284,0.0302625778200286,0.03487916152896645
479,0.03622505531426492,0.030354043583816607,0.035011286209119696
480,0.03633657029684988,0.03044574765814204,0.03513652860343837
481,0.036445193193130956,0.030531201028336515,0.03526465113370641
482,0.03654929977221562,0.030612766458328684,0.03539768971901638
483,0.03665579473522038,0.030702011504960065,0.03553464683990368
484,0.036775567419635814,0.030812336388051816,0.03567385721216107
485,0.03690031587155457,0.030914615901273965,0.03583098580757806
486,0.03702905014979892,0.03102439949063178,0.035988585504449944
487,0.03716518156370317,0.031147760767591386,0.036143304237020016
488,0.03731675010816078,0.03126843289205862,0.036317863723712346
489,0.037465822010701165,0.031386776964307375,0.03648092873332186
490,0.03761708033522818,0.031509975621066,0.03663937935168487
491,0.037779390025463634,0.031644767120347896,0.036806904614909534
492,0.03795672235375699,0.03178974882877176,0.03698501606687396
493,0.03813792019877074,0.03195287471820688,0.03718354592741807
494,0.0383299809496851,0.03212977501328054,0.03739308648087313
495,0.03854587401836488,0.032311659762343584,0.03759805885348298
496,0.03877930863678809,0.03250586801718145,0.03781280674252809
497,0.03902233629808182,0.032723458526754984,0.038058933995298035
498,0.039280375411496087,0.03296863065061256,0.03833231507422632
499,0.03957146362298027,0.03323605537817173,0.03860100427690065
500,0.03988596796140918,0.033510482957857635,0.038893691280171616
501,0.0402196210235086,0.033813138490848445,0.039210354416671006
502,0.04057462924262424,0.03415538629092418,0.03954852631880359
503,0.04096983667474877,0.034507704925565374,0.03991908544229528
504,0.04138361415229722,0.03489175998002952,0.04029806584693718
505,0.04181796201228955,0.035303862020500544,0.04069318328485201
506,0.042284213981587784,0.03573874427877383,0.041120979506577254
507,0.04278962354757091,0.03623183124018747,0.04157386690959185
508,0.04334017474347866,0.03676806690021824,0.042068422128923366
509,0.04393202063339717,0.03733759431027803,0.042604711710361134
510,0.044554928239790154,0.03793963365375717,0.043168364920683516
511,0.045231320401769345,0.03860108539313706,0.04376475268229694
512,0.045953469461419705,0.03931006181177269,0.044400472257767346
513,0.04671629832311911,0.04005949134946618,0.04507834294347405
514,0.04753122683283641,0.04086573886241617,0.04579125414631993
515,0.04839778388057592,0.041746018286460546,0.046552843471041425
516,0.04933349546332503,0.0426938050055423,0.04737486836559586
517,0.05034775835597503,0.04369589834673414,0.04825822856683341
518,0.051415882863307054,0.04477497917783593,0.04917745534989226
519,0.05251210066642292,0.04587955593032583,0.0501194289355442
520,0.053618099379768656,0.04698565332225642,0.05106350717934203
521,0.05472944069726551,0.04810134635742539,0.051995046351203375
522,0.05584159343426914,0.049226501131880235,0.05294848849646487
523,0.056960013629793756,0.05035589524133493,0.05389613085842226
524,0.0580901747018551,0.051490937658960595,0.054833994436341835
525,0.0592190232322888,0.052626842378153876,0.05579555379428065
526,0.060346657228212496,0.053773027281241746,0.05676425501615682
527,0.06146657490646531,0.05490940280147503,0.05772616834048125
528,0.06255973124515601,0.05600439178399554,0.05866394737420594
529,0.06358047619565738,0.05703029076117608,0.059548522025383126
530,0.06453278228121542,0.057993902890260844,0.060390200255215506
531,0.06543264683247296,0.05890464516542933,0.06119534302065589
532,0.06629631821391374,0.05976997153055141,0.06196543176914687
533,0.06711067622508766,0.060603758702762446,0.06271040457985638
534,0.06788206923692598,0.061387706928071765,0.06343433350437395
535,0.06860695856886571,0.0621092705211439,0.06412760059574031
536,0.06926508891771223,0.06277423471890155,0.06476632579862246
537,0.06986818674173904,0.06339267315578606,0.06537393432486063
538,0.07042989902678867,0.06396993331820737,0.06595425673462298
539,0.07096161294269868,0.0645091175630609,0.06650989949039443
540,0.07146616304846744,0.06501344661116971,0.06706115583400649
541,0.07194195240138908,0.06549455448716576,0.06759006621705427
542,0.07238891919892976,0.06595170407212088,0.06808821560699621
543,0.07280990347442519,0.06637856273924318,0.06855855300524312
544,0.07321128961082977,0.06679180314487024,0.06901912449704509
545,0.07359726214922424,0.06718448747593114,0.06946828745319415
546,0.07396981997288114,0.067556947018351,0.0699065779649656
547,0.07432552391209635,0.06792214852836975,0.07034021135976215
548,0.0746618426969729,0.0682719390048783,0.07075067080619145
549,0.0749722035755594,0.06859501636972304,0.07113763804772695
550,0.07525034294479556,0.06888051079520642,0.0715025398363759
551,0.07549609031284941,0.0691233271368945,0.07183270658013723
552,0.07569788984452318,0.06932481779254007,0.0721283360223192
553,0.0758461479446221,0.06947791088442384,0.07238271694502575
554,0.07593358533134127,0.06956985852713733,0.07258532461290207
555,0.07595866023639913,0.06959142534398724,0.0727388341319579
556,0.07591914237374296,0.06954568421376671,0.07284718287332369
557,0.07581349540444525,0.06943513175701142,0.07290844817555932
558,0.07564157140886382,0.06925778316987743,0.07290840729025806
559,0.07541423737214029,0.0690167028512683,0.07286675053704172
560,0.07514095058584003,0.06872506327805948,0.07278633510857731
561,0.074829113627972,0.06839639451449846,0.07266716928174458
562,0.07448018976398267,0.06803024331590646,0.07252008428661523
563,0.0740974901439131,0.06763007552332276,0.07234496954787933
564,0.07368044827815567,0.06719270561426514,0.07213912641643837
565,0.07322728844188522,0.06671367481750787,0.07189890149152839
566,0.07273606815663505,0.06619948954237528,0.07162165159534875
567,0.07221117632826163,0.06564736004868835,0.07130966094807771
568,0.07166006196873534,0.06506355778285743,0.07097312243248247
569,0.07109413209664056,0.06446843567278003,0.0706315910244437
570,0.0705061395961216,0.06385642702017406,0.070278375950867
571,0.0699159024599533,0.06324142103188657,0.06991420166657748
572,0.06934968196751622,0.06264390729530142,0.06955103138094089
573,0.06881060493109979,0.06207327217918563,0.06922343688151388
574,0.06829910283284937,0.06154289293222679,0.06891269861492884
575,0.06781265173057967,0.0610476189625394,0.06862000815733842
576,0.06735219579521484,0.06057296112303602,0.06836316478456726
577,0.06692661848622916,0.06012457102111377,0.06812873836721209
578,0.06653133681268757,0.05970754521630432,0.06790942466781195
579,0.0661626265033466,0.059324249379033384,0.06770504757244204
580,0.06582331781850537,0.05897095058767307,0.06752838302363164
581,0.06550887924416712,0.05864515595973822,0.06736601114566405
582,0.06521795094727081,0.05834370319477136,0.06722442899661513
583,0.06495080688131752,0.0580636846666465,0.0671113994830311
584,0.06471391730015576,0.057808262420456474,0.06701027903310257
585,0.06450199613886214,0.05757261230628683,0.06692136461087134
586,0.0643091806025024,0.05735626589328936,0.06684976165091909
587,0.0641287954813327,0.05716043866816814,0.06680279184466756
588,0.06397910313616922,0.056992781037816145,0.06677473995584364
589,0.06384477240396504,0.05683612373001246,0.06675493247453548
590,0.06371694226105469,0.05668544827351767,0.06674020092676577
591,0.06360713064157407,0.05656398409006944,0.06674481551036215
592,0.06351856146694704,0.05646609739086243,0.06676012746547595
593,0.06344989747288225,0.056385096676423385,0.06678776796120944
594,0.0633984926789712,0.05631770692894547,0.06683329815094256
595,0.06335960590464192,0.056276552020357216,0.06689930614656778
596,0.06333314217946315,0.05624428458675305,0.06698108375496542
597,0.06331552693643004,0.05621268864230114,0.06707037442048099
598,0.06329946611086106,0.05618428898415249,0.06715657297757992
599,0.06327301980667337,0.05615252628998858,0.06723075945952728
600,0.06323475029318949,0.056113032020405774,0.06730418909280367
601,0.06318439716979697,0.05606019166447755,0.06737762377687086
602,0.06311973191822236,0.05598336019304417,0.06741271686954341
603,0.0630236342780547,0.05588892003294081,0.06743620993319822
604,0.06289878934609981,0.055769472111183244,0.0674436799833226
605,0.06275353519426052,0.05561420358065374,0.06742143040900714
606,0.06257839977773265,0.055439760210276835,0.06738551621787342
607,0.06237939431875971,0.05523667167112226,0.06731986914844379
608,0.062160907979414495,0.05500833173983681,0.06722598580385973
609,0.061924078933648964,0.05477436508521052,0.0671275932783208
610,0.061674218110018025,0.05451995318439393,0.06701140959608475
611,0.06141762534579414,0.05425726517384912,0.06688567574777853
612,0.061159116504793734,0.053999551438454946,0.06676174532182236
613,0.06090176910125903,0.05374579926212864,0.06664569543243896
614,0.0606471909386227,0.05348969703386457,0.06652509108657326
615,0.06040359180397232,0.05324070937966846,0.06640749839463844
616,0.06017949675008061,0.05301303062512539,0.06630871909680394
617,0.059964117294583244,0.05279230485805053,0.06621661654779105
618,0.059772602055307246,0.052593545219687225,0.06614363985433823
619,0.05961125590088701,0.052425613142859616,0.06609486279632822
620,0.059471309812383494,0.05228568894364587,0.06606304271368707
621,0.05936369150583453,0.052173290720249746,0.06605719417578254
622,0.05928232076093989,0.052087416144141134,0.06608129098846909
623,0.05922128406108862,0.05202872303630772,0.06613626973253883
624,0.059187989418439106,0.052002723370094525,0.06621875824874213
625,0.05918399374963467,0.05199522562706563,0.06632569751877948
626,0.05920409667096857,0.052008102355592015,0.06645413217333568
627,0.05923850120303637,0.05205026111885569,0.06660146827664841
628,0.05928819820793971,0.05210093240036206,0.0667578092006304
629,0.05934791022319644,0.05215381836022729,0.06691949960128579
630,0.05940865323458564,0.05220692055957455,0.0670803624710649
631,0.059458617801063374,0.05226367397086793,0.06723441170714818
632,0.05950219007522761,0.05230057230984629,0.06735881902509092
633,0.059522200675848604,0.05230158478531389,0.06744989933776059
634,0.05950219338705633,0.05226035419528869,0.06750712903103366
635,0.05945166998147092,0.052195497258100305,0.0675166464585453
636,0.05936130239629294,0.05207883659989536,0.06747530059739405
637,0.05922790541114111,0.05190999469887276,0.06738495555098711
638,0.0590545565089136,0.05170869203666862,0.06725286806178152
639,0.05885205869602625,0.051479926823262544,0.06709802147730112
640,0.05862453118113394,0.05121979116334574,0.06691229337365814
641,0.0583745382790037,0.05092900799838554,0.06669483472348291
642,0.05810266457877133,0.050616371787528085,0.06646462171850441
643,0.05780935630853215,0.050296053092024624,0.06621570775334312
644,0.05750754534958632,0.04997286654954056,0.06596361836298202
645,0.057208606050200346,0.04964784297496717,0.06572245834379734
646,0.05690268348348137,0.04932812400430131,0.06547543332215526
647,0.05661737540864759,0.04902368805314811,0.06524206793182945
648,0.0563628866201878,0.04875309580388795,0.06504502711825551
649,0.05613096523671583,0.048535385217940506,0.06490222002553635
650,0.055929746571884174,0.048344164573408385,0.0647934877870716
651,0.055763560515677754,0.04818007877423548,0.06472258340591058
652,0.055625976482819216,0.048043505090254846,0.0646853915446817
653,0.05550075323681591,0.04793329559421185,0.0646612625498619
654,0.05537339845696573,0.04783385010157306,0.06464666646011592
655,0.05523161327081051,0.047729289850492795,0.06462930849325954
656,0.055059140827104495,0.047594746626859356,0.06458599975946913
657,0.054834768793694,0.047379721265108296,0.06446981552536217
