Wavelength,12FEB,26MAR,05APR,03MAY,04JUL,24JUL
350,0.03948548072561821,0.03283156810681047,0.04570440578504451,0.042965253829358646,0.048968802172222346,0.05516965843203592
351,0.03981928011900508,0.03301687149229648,0.046312200944351026,0.04334360077968413,0.04934649368047952,0.0557480359472574
352,0.040005322919769284,0.03313466475035953,0.046563783177587845,0.04366217814123387,0.04959420706825314,0.05588675563848705
353,0.04004622775271828,0.033097278288828205,0.04655128501551395,0.04368544378194349,0.04970061918779407,0.05601315426185969
354,0.04082294449057543,0.033609741096062795,0.04730393514834133,0.044327837491206376,0.05059337983133215,0.05696274239713513
355,0.04125718474488234,0.03383596313947752,0.047746591646676995,0.04463513379111138,0.050930336664707865,0.057451586590823056
356,0.041531444494835056,0.03400200974445143,0.048022069972135525,0.044976064028848246,0.05113847867492613,0.05784452111360593
357,0.041692143192537466,0.03418383750887462,0.048280212199322006,0.04520893089323663,0.05131567237616092,0.058209868190480296
358,0.0418367999223561,0.03426387385874065,0.04851785628590774,0.04525538745077299,0.05133916315490254,0.0583852081115589
359,0.04206354712788901,0.03441237160881626,0.04871311068248897,0.04544941793078682,0.05161996356536619,0.05848794158910408
360,0.04244133733492966,0.03466875080692024,0.049114719060939005,0.04580515545097675,0.051966584546037184,0.05911430774047799
361,0.04278804339763727,0.03485065753040355,0.04956333882135944,0.04614909529763071,0.05234212799899207,0.05962550740789785
362,0.04308169126198155,0.03502416860907523,0.04989262968310945,0.04638246828677286,0.05271761323082022,0.05998142095634214
363,0.04333113142812055,0.03518704418270473,0.049987189224829004,0.04649533009266532,0.052755572225098135,0.06032663423862421
364,0.04369173559729972,0.03542567362105173,0.05032767301644966,0.04676545160092477,0.05309683048472427,0.060705514479731354
365,0.043919507922960115,0.03564078509926574,0.05065289542155223,0.04706247922117509,0.05334928153116651,0.06108027872883047
366,0.04404053061863643,0.035673525779484655,0.0507441468439293,0.04714869549884551,0.05349421116989708,0.0613306968074844
367,0.04438251249349083,0.035879764823530946,0.05098640657127167,0.04735218003428526,0.05365124237401933,0.061630030727529025
368,0.044730716102470966,0.03612163966026269,0.05132161262082162,0.04763791852970606,0.05396769689159315,0.062102881574308474
369,0.04507030237213784,0.0364145356708062,0.051760089305249994,0.04802297898617807,0.05433809045466009,0.06254503522075745
370,0.04526782152660169,0.03660591448421032,0.05210668323830994,0.04817520206166927,0.054593327348285474,0.06292513259472304
371,0.045483395534971924,0.03680003005974883,0.05247019596578125,0.0484839062456539,0.05486154233191711,0.06336390724424837
372,0.045806624643560556,0.037037010320023545,0.052759890778649926,0.04878125934761639,0.055188623911544554,0.06368168624246115
373,0.04617638283937433,0.037263791760429765,0.05306323616088507,0.0491079661238448,0.05560625542687306,0.06407322121120779
374,0.046565228695452744,0.037538015094686,0.0534912986196104,0.04955053412346662,0.056071043818513217,0.06477555474178798
375,0.04693178343785423,0.037883987576499877,0.05396218223409522,0.05006400957189268,0.05659206962551058,0.0654042509414641
376,0.04730649139532309,0.03814211959022756,0.05440135475890846,0.050520195348138695,0.057061719625498636,0.06587223501754148
377,0.04768189482230694,0.03838268012939731,0.054888933163413214,0.05088745024220343,0.05751086103606635,0.06643178977405964
378,0.04798152084217194,0.03861694450230536,0.055303898037396756,0.05113592986761103,0.057855891702109204,0.06687548433181145
379,0.04836591190123263,0.03897032065586958,0.05577682440777484,0.051543768781931516,0.05825224441816912,0.06749458501964611
380,0.048757314497997015,0.039199842688010716,0.05618453754100197,0.051955768519514764,0.05870655982086297,0.06802154853348374
381,0.04906942559666287,0.039330064547437794,0.056508363797557894,0.05225012899411108,0.05905564357594967,0.06836858915830932
382,0.04949369004234075,0.03969090505243544,0.05705883379545212,0.05280152604920379,0.05959331083528302,0.06900220952942397
383,0.04991200500291766,0.040001849328764716,0.057547696269230474,0.05323900693838836,0.06019194564792857,0.0697048748199032
384,0.05027999078260981,0.04023077485437887,0.05799540182957819,0.053623273781227665,0.0606636736854269,0.0702340848081353
385,0.050590322946323985,0.040490732700963185,0.05838544463875528,0.05396504778883548,0.06105673623981793,0.07063282008998248
386,0.0509251625269098,0.04080304665816703,0.058838494738059854,0.054455052527004506,0.06149851517887023,0.071226962687241
387,0.05135528903359128,0.04108617083528351,0.05933745134177295,0.05490775843313446,0.06201971897931023,0.07187181701806244
388,0.05170190788518836,0.04132013592454799,0.05974883696130907,0.055279196974813774,0.06239540078327556,0.07236588395085533
389,0.052074954442749406,0.04161680382383648,0.060215699232146,0.05566568174940712,0.06280737871070144,0.0729572384959023
390,0.05237249293228996,0.041819763053185896,0.060584761760829296,0.05607024509780983,0.06329352164068835,0.07345103839101144
391,0.05265825789843939,0.04203845800461442,0.06088414104637523,0.05635472882759144,0.06366018435461981,0.07380268317094094
392,0.05289960940377095,0.04224931947949132,0.0612556912343024,0.05671551551237301,0.0639103631491007,0.07421220626548228
393,0.0532240631602103,0.0424880977110378,0.06167154592104905,0.05705858890153607,0.0642364303612965,0.07476990691677263
394,0.05361185172130285,0.042738710612543626,0.062063965933273596,0.05739128109672468,0.06473152658634063,0.07525304793826229
395,0.05402703245586569,0.04306382281889782,0.06250122876714675,0.05780925854640644,0.0651868949422115,0.07580318942547307
396,0.054360885924662546,0.04335403398927146,0.06294806617161541,0.05821735858787861,0.06558027366838061,0.07636377418214296
397,0.0545835320936227,0.0435321686063503,0.06321897814287458,0.058482578537901266,0.06582834432370552,0.07680430995503305
398,0.054797347175693054,0.043674294699666244,0.06347317216854764,0.05873762935646402,0.06609654696682826,0.0771014031195096
399,0.05501637029485319,0.043887999443015524,0.06374282517822771,0.05896570270983981,0.06642149232638371,0.07748503743175822
400,0.05528758296672451,0.04411482851735974,0.06401455950377916,0.059263147342774825,0.06679823600886306,0.07786510732875654
401,0.05548598609460595,0.044291632233368974,0.06432224259617966,0.05952295316251053,0.06708945777745737,0.07823077912988118
402,0.055700549947689595,0.04441740999097542,0.06460059378315702,0.059826097419255424,0.067371252714997,0.07859121206815478
403,0.05589576765871081,0.044532159321030766,0.06480229261005263,0.06000829020887433,0.06764815973534351,0.07888975284918287
404,0.05611403449662182,0.044685928694322655,0.06504990224208029,0.06025526598869926,0.06794294534498083,0.07921152803678386
405,0.05630714734718173,0.04484865800314828,0.06526433777904468,0.06054554713957369,0.06821748263418981,0.07957232143675944
406,0.05651514818539271,0.04505858742956369,0.06552135814908891,0.06083056908623877,0.0685574655696777,0.07996733556860228
407,0.05673851350015936,0.04524332268379523,0.06584192337549807,0.061178364230839326,0.06890872759524017,0.08037461174971167
408,0.05695208717976634,0.045420762471003004,0.06614519039159332,0.06141926513077123,0.06923730753538082,0.0807467477484722
409,0.05720313383300834,0.04559882856297596,0.06642221590355973,0.06169874103136179,0.06956189897829693,0.08115469428068581
410,0.05738939851046979,0.045786594346975615,0.06670455915899423,0.06198854405449972,0.06987297986303209,0.08153714801117673
411,0.05753616444876544,0.04594277646245641,0.06691935387299701,0.062191467663031165,0.07016075533584575,0.08182193042179975
412,0.057734767283158,0.04609837190176112,0.06715356002715421,0.0624836363939234,0.07047424046602555,0.08215037879974316
413,0.057979403589502085,0.04628796045299283,0.06744055608469096,0.06275534646738323,0.07079219790040672,0.08254465232973512
414,0.058233020214010285,0.046485927122572615,0.06775913982358145,0.0630624530017532,0.07114191948986581,0.08294862485237708
415,0.058395464812770866,0.04662901991351265,0.06799238544622856,0.06330352160099541,0.07140991686702783,0.08325104540657326
416,0.05856431212044588,0.04678044054195772,0.06823389925501251,0.06352775809336406,0.07167949535012642,0.08359660701616832
417,0.05875885975025785,0.04694988357148169,0.06845807781667951,0.06379361150610682,0.07198744523114722,0.0839609361267212
418,0.058942002923939064,0.047107402909085425,0.06870328512240084,0.06403074924100452,0.07226122027765006,0.08429455288615459
419,0.05915568429302672,0.047271385937591004,0.0689850758701872,0.06435014050314856,0.07260836184116135,0.08466924163325845
420,0.059347784996279046,0.047424868278522755,0.0692389039593399,0.06461336748089183,0.07286202296964171,0.08502359356283196
421,0.059518419151378926,0.047581324135243935,0.06949484575545253,0.06492039660497148,0.07313596623120266,0.08533042242531494
422,0.05968988198983692,0.0477606482172768,0.0697208176672443,0.06520542180322882,0.07345344572334872,0.08569041484521069
423,0.05983311866941212,0.04790991324057784,0.06992825705962258,0.0654161234379255,0.07372947814116887,0.086016955220601
424,0.0599977799720795,0.048025327206236354,0.0701641824638522,0.06564479124502531,0.07398048271604259,0.08633800551199916
425,0.06016408248062631,0.04820842431509534,0.07039958784728498,0.06592438869024154,0.0742562028786524,0.08667158329201648
426,0.06032880537715074,0.04838197087315856,0.07063583741496199,0.06619340126730497,0.07455779887348923,0.08698492663433689
427,0.06051857771758608,0.048524077824922504,0.0708680827930618,0.06647601675661848,0.07486584649666274,0.08729494894664958
428,0.06070694202998938,0.048722295580996,0.07114744120079355,0.06674522058881974,0.07515962671180465,0.0877230054177853
429,0.0609145942107268,0.04888937134819461,0.07136917374299091,0.06698907095048483,0.07546243752852,0.08807224294437657
430,0.06110642496338187,0.049050818961095415,0.0716144165597984,0.0672301706804025,0.07579324297892617,0.08844213225277076
431,0.06128338832179412,0.049209287650138114,0.07184776441570409,0.06747249842943438,0.07608746871468984,0.08875322620179985
432,0.06144681207790746,0.04930986911455142,0.07201139943230811,0.0676536364047006,0.07635742395904324,0.08905925319407978
433,0.06160008674560767,0.04945036242746811,0.07220499577069073,0.0678713631887987,0.07658803111423321,0.08935512317897168
434,0.06174158772497443,0.049604242448017394,0.0724004482617526,0.06812489113309256,0.07679768484108848,0.08966758444330776
435,0.06187723293102437,0.04976987996570619,0.07260458665049083,0.06836618837330002,0.07703981062176343,0.0900149975451909
436,0.06205696491650553,0.049946662810613565,0.07285501685266793,0.0685598703713843,0.07731830917005669,0.09034038433830202
437,0.062218688705972934,0.05010884693255972,0.07308826721717898,0.06881316038600614,0.0775720177245663,0.09063553310407714
438,0.062317546792340334,0.05022268808010984,0.07323955687633922,0.06891016752717878,0.07776333641474412,0.0908656967170548
439,0.06241491817087348,0.050327289833007355,0.07337184605961519,0.06909727958076632,0.07796743978177491,0.09109299450352325
440,0.06255236620212468,0.05045038022623327,0.07356075316729783,0.06926620789479046,0.07814565195246503,0.09133598461530863
441,0.06269972647089861,0.0505768799110672,0.073763282778995,0.06946288714719147,0.07839630326214542,0.09160615258094612
442,0.06282502534120221,0.05068890343699609,0.07395362528083023,0.0696389304550974,0.07864715937249164,0.0918671002417979
443,0.06296067363361016,0.05081752750101083,0.07410292835761623,0.06983571625197377,0.07887004750118835,0.09215137942448243
444,0.06308050180522481,0.05093740473240453,0.07427263214682914,0.07004339984677266,0.07908137673612989,0.09239696384054007
445,0.06321710695146701,0.051059711839724575,0.07446600887914476,0.07023902341067759,0.07927754475966788,0.09263823823373388
446,0.0633690121013647,0.051193111518759236,0.07466831247512151,0.07042187676673908,0.07950069410222207,0.09290041803852225
447,0.06350892632551437,0.05135132273445072,0.07484520374048637,0.07063465313202859,0.07976515096699269,0.09320858377852542
448,0.06367152808972863,0.051478497017617156,0.07506339337467882,0.07087152350867776,0.08002221714334981,0.09348489406934325
449,0.06383789163506871,0.051604621776557225,0.07526995923069893,0.07110039177060656,0.08026522639271366,0.09376188455531789
450,0.06400467300693946,0.05176224181919608,0.07546371175350632,0.07132005832156069,0.08051127942451816,0.09408007398692582
451,0.06418335630499536,0.05189448261180604,0.07567485412872657,0.07155485830646298,0.08077813591308775,0.09437194757476278
452,0.06435754091801268,0.05206155152747232,0.07590819224585521,0.07177671312510336,0.0810391281928079,0.09464943611044743
453,0.06454158398457638,0.05223665489160528,0.07615551119890558,0.07204162711193701,0.08130625907939741,0.09495798532722782
454,0.06472703325663524,0.05236187748696095,0.07638858262793119,0.07232310317260225,0.08157185740514643,0.09529675051600334
455,0.06494231978233639,0.05254035783885194,0.07664125639787395,0.07259418610057637,0.08185705605268323,0.09561868722625524
456,0.06515122974733584,0.05271039256677627,0.07689277099150293,0.07286234280103557,0.0821370813139149,0.09593896771012822
457,0.06533478747917862,0.05286007694483831,0.07711894336205644,0.07311925608126164,0.08239751284298755,0.09623881583718238
458,0.06551717855734404,0.052999611633617064,0.07732999372861354,0.07337806500804171,0.08267760922143563,0.09652840914871463
459,0.06567926638204985,0.05315445423790134,0.07755147186640798,0.07360061576861321,0.08292783578949225,0.09681853032282384
460,0.06584118691916421,0.053313311642507924,0.07776048586615081,0.07384062716767836,0.08318484266719493,0.09712917731244333
461,0.06598690678425909,0.053453560206259396,0.0779516694131635,0.07407215661230201,0.08342447038730581,0.09741463211644746
462,0.06613299119770888,0.053564749569989786,0.07815957267703043,0.07427287748788898,0.0836695091002845,0.09764962951883539
463,0.06628987885427765,0.05369681443531715,0.07836256216248505,0.07447794281887991,0.08391255515579546,0.0979247883867976
464,0.06642917755026961,0.05383409035751116,0.07854784928721488,0.07470397660385013,0.08414398153379873,0.09819314519920053
465,0.06657560738568191,0.05396473157098769,0.07876273631245201,0.07493305215834617,0.08439422535514204,0.0984602477879537
466,0.06670236190468457,0.054095981905615875,0.07893049183845864,0.07511955440665714,0.08462537087213205,0.09870917850044139
467,0.06682206871449367,0.054216110572062964,0.07909690384803315,0.0753157593455564,0.08481536374186371,0.09894982323643318
468,0.06694378416606325,0.054327237798173895,0.07925506871414001,0.07551498111118589,0.08500575302801461,0.09918257193143898
469,0.06705727004750409,0.05441824581688398,0.079413330761095,0.07568644543634294,0.08521926052389647,0.09938621624365296
470,0.06716402864329024,0.054525928139457544,0.07958027104474526,0.07587809701733532,0.08543086297881697,0.09960350620213898
471,0.06726638504844676,0.054639003197281585,0.07972899704491554,0.07607395409328338,0.08563691283943503,0.09984062217597532
472,0.06738790270281267,0.05476451396871206,0.07987900025596642,0.07625347124048654,0.08584717606938422,0.10009631609173122
473,0.06751956020182352,0.05486437211387929,0.08004174849083899,0.07642946603818053,0.08604395964542542,0.10033211152289687
474,0.0676326215829967,0.054976551070744964,0.08020226893686692,0.07661234278330809,0.08623648509064163,0.10053127197123482
475,0.06774103416018068,0.055093293309100205,0.08035430460858935,0.07678514397948914,0.08642016801590255,0.10073608436467285
476,0.06786796153797377,0.05519332135785698,0.08051128878327979,0.0769660576653156,0.08663268404513454,0.10098512970238321
477,0.0679770610352646,0.05530353967827725,0.08066028635244263,0.07713556616519149,0.08684975483489951,0.10121916165049614
478,0.06808690447334434,0.05540731046066585,0.08081231966869179,0.0773221241989242,0.08704367631610202,0.10143870763881956
479,0.06820259070132853,0.055514910427086686,0.08096232886048046,0.07751992113097807,0.0872348770517728,0.10165615074967613
480,0.06832107226614506,0.05563092778993005,0.08110893960758953,0.07771054058688173,0.08742692039535871,0.10187461025567732
481,0.06843950961358819,0.05573060106386012,0.08125135250163816,0.07788285536909867,0.08761212130732221,0.10209111224609443
482,0.06855322589788372,0.05582749130677324,0.08140340038565033,0.07805991826142857,0.08783018962998682,0.1023057319246593
483,0.06868710159627317,0.05594385188305609,0.08159126584102841,0.07827717047361704,0.08808219112967836,0.10254850958421363
484,0.0688312845044474,0.05606114403368224,0.08174769771770657,0.07848610135599711,0.08827893906507622,0.10278392386863236
485,0.06896391950253128,0.05619034959324963,0.08190408837865135,0.07869925839378358,0.08847970231441862,0.10300991325452245
486,0.06910301580064684,0.056315585312465964,0.08207826413394945,0.07889107406047499,0.08869416366677733,0.10325084138019078
487,0.06923684516830117,0.05641229786997437,0.08224967735999857,0.07908002307796418,0.08890211572660384,0.10348665986142891
488,0.06937811237429584,0.056522842444888706,0.08239642601821272,0.07927543759142047,0.08911482306896305,0.10373986830074702
489,0.06951505729244062,0.056647650401337596,0.08255447282021683,0.07947516453337285,0.0893099335037837,0.10398971528022827
490,0.0696329368834338,0.05676071130088564,0.08270996063023195,0.07966746095261805,0.08950364446118722,0.10421045266618705
491,0.06974559296245089,0.05685778680529553,0.08287879169474605,0.07983672738364,0.08971404339160836,0.10440200193148072
492,0.0698570364249823,0.056954993111216407,0.08301735366039346,0.08002797504612269,0.08990593082474496,0.10460575976072856
493,0.06996343265328696,0.0570433771066564,0.0831500081414848,0.08020351489595905,0.09009637708442278,0.10482351043908016
494,0.07007635424400036,0.05713853840820196,0.08329862949708203,0.080364537286012,0.090295756236799,0.10505463061907375
495,0.0701979009676072,0.057251680757348926,0.08345972676444166,0.08054558310890765,0.09048560042115529,0.10527390441767658
496,0.07033123417166864,0.057370962467885596,0.0836118170015053,0.0807299202211885,0.0906786244728002,0.10548383601373967
497,0.0704550747738896,0.05748896568082462,0.08376774749798863,0.08093119243985253,0.09087541617200037,0.10570464418146469
498,0.07055995341736324,0.0575935995501658,0.08391185803098196,0.08112745983833128,0.09106966425791294,0.10592602690559236
499,0.0706600619876073,0.057682463727800386,0.08405475971622403,0.08127613060594417,0.09127196287270893,0.10612262649611744
500,0.07079252457239321,0.05781112207199483,0.08420980676817977,0.08147380478413181,0.09146645919349271,0.10634873976286323
501,0.07093276387045007,0.05793367556718226,0.08438554502191001,0.08169659402413935,0.09166017585473722,0.10659168859669194
502,0.07105250614953548,0.05804332196505911,0.08456480211842818,0.08188658670697187,0.0918677361793705,0.10680873461743134
503,0.07118030737769865,0.05816871871857069,0.08470738458839097,0.08208824030798108,0.09205865942002456,0.10702740939720114
504,0.07130769735962056,0.05828511241616392,0.0848524774063271,0.08228363431473268,0.09226404479774039,0.10724335340365784
505,0.07143891614404804,0.05839795774720792,0.08501867891211355,0.08248273183923355,0.09248562500347937,0.10747453983283009
506,0.0715631372083856,0.0585143563094708,0.08518978092220014,0.08267161177299921,0.09269330205036852,0.10770149744892041
507,0.07165577722466468,0.05860376899298976,0.08532520186037561,0.08285394060208712,0.09286246327909173,0.10791666678441267
508,0.07176466945402138,0.05870990800374004,0.08546491112673071,0.08303553279870925,0.09306962557783767,0.10812717678095599
509,0.07189299641481378,0.05882961708558258,0.085622429126467,0.08320755944294858,0.09328994416800554,0.10833081519499071
